        $SEQPAR
        DWELLTIME= 0.0000810000000000
        HZPPPM= 0.0000000000000000, 0.0002025255870733
        SEQ= ( 64 )<ISIS_31P>
        $END
        $NMID
        ID= '( 60 )<RAT_2_JAN_28>'
        FMTDAT= '%6.3f'
        TRAMP= 0.1100000000000000
        $END
-7267.750  38002.719
19738.656  49366.031
-44510.062  -20222.000
-62691.438  27317.062
14802.750  11736.031
22054.000  23075.250
-27255.406  -14805.094
-24763.531  20492.844
-49557.312  21728.750
-3058.750  47856.656
-9755.094  35320.750
-67153.125  13982.375
-3386.906  -16443.531
-10063.875  -6108.500
1320.438  -47632.375
-59307.906  17847.000
-26518.625  34114.875
-23686.500  26050.719
3932.469  -26064.938
-30696.062  27550.625
-9373.750  -25449.375
3731.875  -23680.750
8803.250  -8494.406
-1300.906  -11303.812
14256.562  8863.875
-37976.469  -12360.594
-6796.469  30455.469
4064.094  36318.688
7588.250  42889.312
-9557.125  -20742.906
-14323.344  -32834.500
-23809.719  -10187.281
4388.344  1767.938
-3918.156  -20168.688
-24256.219  -26778.875
31314.875  13100.531
14464.500  -16366.781
-44388.031  6967.656
39804.625  34640.219
6045.969  -42563.688
28598.375  -3318.062
-31303.562  -44173.469
-21877.594  303.562
7982.906  -5000.531
1418.375  16168.188
-2790.344  -53581.500
1771.625  -13025.938
-25933.281  -6519.750
-13699.625  2072.000
-32105.469  854.125
23931.875  21986.219
-33463.719  -11518.125
24262.438  38770.625
-3392.938  -6152.812
-34596.438  -25183.219
-13011.719  -42707.094
-30242.594  -15353.500
-11758.344  -32958.219
-23387.281  1598.406
-41971.969  -21015.656
-13548.500  -4376.938
-2401.531  11636.719
-8043.438  -23695.125
-30057.625  -1950.281
-8885.219  -19223.531
-6731.938  40883.750
-1407.625  2667.281
-19084.125  32764.219
23258.031  -49473.031
3764.281  -2399.094
250.188  -15587.656
25184.875  -8859.531
-5057.094  -869.906
-15483.281  7458.188
-31843.312  8644.562
-26793.281  11123.219
-3001.938  -14008.188
-22688.969  -39508.812
5738.188  -15805.531
1304.188  34591.531
-8622.125  -8835.719
6144.938  -10384.094
12462.344  -17700.688
-15928.188  -9131.062
20987.625  -38606.188
-1588.312  -24688.875
23481.719  10966.688
-30234.562  -31196.031
-12630.938  -6059.188
-31940.500  21904.281
-17829.625  -7461.062
5198.781  11241.281
-46434.562  30538.688
-15757.406  -9334.062
-19018.969  -42244.312
-26541.688  -12036.281
-14072.906  3354.438
11616.406  13063.469
-42735.062  -16066.188
10723.688  15880.031
-14961.625  17857.312
-19630.250  -16454.312
12946.562  7257.438
-10645.219  20450.500
-7564.438  -12264.594
-8328.000  14905.656
-11998.062  -13991.500
-22379.156  19754.688
24021.375  -14698.625
-30692.312  25867.656
-38588.594  -65.156
24187.656  8580.156
39947.344  -7916.688
-61656.281  -10427.844
-2541.500  -29352.812
7954.594  7453.219
-4510.438  34826.375
-6900.531  18004.969
-11423.438  -44734.406
-7025.625  -28393.719
5453.469  -13194.219
39335.531  -56066.500
-39334.969  -51229.406
920.000  11722.688
50343.062  22299.125
23133.062  -9862.812
9040.312  -27511.375
-25701.969  15054.656
10231.875  -23855.344
7468.094  -3969.750
21800.625  -4376.750
-17221.250  -2710.594
13240.719  -6976.875
19976.250  -10672.531
5317.031  -31263.750
29559.281  3870.438
5847.875  -6832.031
-27081.656  12880.438
-29933.438  -3817.031
-25002.781  -20564.875
20680.562  -4590.656
25943.219  6346.438
-407.125  29874.844
25122.812  17687.031
-5377.656  266.219
1493.500  -7400.469
7982.781  -14142.500
9214.688  -9568.969
11019.125  2850.438
-21024.312  -19747.688
-3481.688  13899.375
-7468.000  17993.625
-3076.688  -34074.281
-26604.188  -36134.094
-9831.781  -1550.656
-32950.188  10377.094
13034.188  16314.500
17273.844  -4502.094
17240.625  3447.094
34269.281  -32424.750
14700.062  -11220.469
-4996.062  -9276.656
14970.188  -30321.844
-4864.719  -30501.406
-1247.094  -8551.562
-439.906  20029.938
-8289.469  -13964.906
-12692.781  -2846.312
-24748.344  9676.000
18238.625  -5194.000
-1310.469  25822.000
506.812  -18579.438
-8565.219  10906.656
-41508.969  -18302.219
4222.812  31672.281
-5920.312  1171.906
-8617.250  10106.844
6170.594  4009.438
7712.938  18664.031
12301.781  -26621.000
53113.344  43669.844
11816.562  -33034.312
45157.469  10903.000
-5419.250  26745.750
-41778.906  -17277.156
10031.844  -53039.969
-47178.719  4101.719
32176.250  28022.125
3637.625  1008.250
10659.281  -20587.594
-19747.312  -28495.875
32300.625  9708.281
5842.438  4790.875
-48671.062  -19693.531
-21587.281  8779.406
-38718.719  -10579.875
15004.625  9134.031
-12388.531  -26896.156
28323.312  -17360.875
12091.562  43537.812
25783.938  -6664.219
-15995.906  2004.594
28982.281  13291.188
-21172.938  16739.594
3099.844  7413.688
14860.250  4476.000
-21490.156  -4589.906
-16120.656  -15483.781
38596.250  -17490.594
1190.688  39493.688
-24872.969  16981.656
-12107.531  -22885.375
-8710.844  8683.562
7319.781  -53541.906
22352.156  -12136.812
40950.812  3559.062
16265.500  7976.312
-43067.750  30729.844
2234.438  3027.125
13261.406  -31835.344
9199.938  778.594
42294.625  35586.750
-14512.719  -13915.469
8345.094  16548.906
-39408.750  -33582.719
-17421.719  -22015.281
5850.469  18218.875
-17088.281  24441.031
14423.656  1115.125
21027.000  14640.844
-4421.875  8995.844
20154.156  -29606.094
23590.469  -5828.500
-28075.188  35596.938
-30640.875  -9170.812
16200.844  -6661.469
36374.375  20789.469
-12974.344  6185.438
397.094  23125.531
-24165.688  -904.344
11776.281  -6597.906
-746.781  -5958.656
-12972.719  22412.969
5013.875  11458.344
-18068.312  -41028.344
-558.938  11345.688
-24926.844  55581.312
12169.094  -51260.281
-2397.875  -17908.938
4197.938  -6346.625
-11408.969  -2038.562
-17289.750  13152.562
12395.688  34413.344
-6397.875  -3850.312
11730.312  -38462.188
13960.812  10977.031
8834.750  -28017.000
22293.469  -21047.406
-48228.875  16777.656
-34626.000  767.750
7132.500  -14305.344
17348.906  1478.125
19550.594  15458.719
-8382.406  -10459.000
20470.344  49993.969
-6607.375  18554.844
25245.406  252.281
17769.406  5637.719
29965.250  32503.062
-13155.656  28703.688
60587.031  -20441.719
-16289.750  -21170.875
28933.625  23875.656
-14479.719  18004.781
23561.250  12288.031
13845.406  -7112.375
4337.594  4804.281
-42523.438  -25989.531
21026.781  19962.969
43467.688  14661.719
42666.906  32831.250
-5371.906  -19923.562
5890.562  -14163.844
-10263.406  -5810.094
11421.969  -13945.688
9857.906  9535.438
2544.156  152.219
-10337.719  17363.250
-7597.656  -19434.906
8261.094  -33763.812
16875.062  6620.688
-5156.875  -2768.781
-23404.000  5993.188
29510.312  9619.219
2466.500  -6228.062
-13267.375  3529.656
11828.156  -13439.781
-11609.781  -248.812
-7353.438  -7991.188
-40433.969  -31752.312
26360.375  -9169.094
8423.531  30834.688
-24367.562  11504.000
12201.062  -1918.781
47159.625  -6482.375
2881.969  -13873.438
-12023.062  -4414.719
36769.094  16901.062
129.688  -8822.344
49576.531  16808.062
-5174.812  -10797.281
-9017.719  14255.875
22305.719  -29632.031
7772.094  17405.875
34427.000  -5674.000
-1099.906  -29263.219
-18280.000  -11511.906
1367.406  7061.812
-16456.625  -22534.406
34253.219  -44214.062
24243.656  -6147.125
14976.812  10036.469
31140.219  48535.562
11362.219  25416.219
-4090.594  -10029.250
-12118.531  -17072.156
38145.750  22826.062
4352.438  -12563.219
6809.000  23728.938
-25729.031  -40030.594
16667.625  2924.031
-5762.906  -1975.750
5264.406  -8874.812
-11151.906  29533.719
25883.562  -19704.312
38793.312  -3181.531
-46.656  -8475.219
2624.844  -10434.062
-4173.094  8280.031
25783.438  16325.312
34119.312  -11011.094
6336.062  8759.594
22402.125  10577.406
25611.594  -27571.875
3614.188  -49169.625
-1767.625  -9237.938
5442.469  33010.594
-26831.656  42326.344
15462.750  46225.250
5762.469  3544.531
-8961.844  37860.906
-12422.312  -4130.094
-918.406  2535.062
-21517.188  29883.344
-19576.344  15968.281
-9747.562  22306.781
3691.562  -27355.031
-31259.562  25977.594
-3577.156  5568.125
1194.812  7356.000
15083.438  21129.781
6900.438  29436.062
-11597.906  30346.031
21269.000  -706.406
-12198.875  -13607.469
3348.281  8135.219
-41438.469  -4734.938
4712.625  36864.500
42824.031  -1167.688
17824.531  23257.562
3737.625  7866.844
8653.344  -9129.938
-5429.875  -35078.312
-6537.031  21680.375
-15232.406  -7350.188
-8191.188  -10391.406
-20352.688  5038.406
-8396.281  -1474.438
-18165.781  14193.719
-1306.438  -18411.188
-33882.375  -4890.562
-11941.094  -15498.156
-15598.312  -8845.406
-311.062  -31742.406
2894.656  -18866.000
13041.031  25087.406
13431.344  -4049.438
27599.875  -3748.562
-20658.812  -5333.812
445.188  8346.562
484.219  -25677.344
14155.375  12051.312
572.125  -36304.938
114.719  -5538.781
-4999.688  -49.375
3027.312  -26151.375
-23581.406  14099.812
-40988.188  37011.688
-21656.938  33198.156
39704.719  8311.500
-35272.719  41879.094
-13684.375  21674.344
-3382.281  -10060.094
-20811.000  9288.781
-16780.969  -9899.938
-15939.094  17952.375
-9440.750  15917.531
8432.375  24762.406
18546.094  -10521.188
-26413.875  -5495.812
24311.156  18640.375
-31302.719  15557.688
23842.062  16897.281
31164.500  -33887.500
-35290.219  -11954.625
6024.625  -2930.656
7509.031  -3470.781
-32710.594  16740.531
-3358.312  -26733.719
5794.344  15596.625
26868.344  -31647.719
-16420.594  2813.531
838.438  23375.969
7456.938  47747.062
-10819.625  -24749.531
12322.875  26997.094
-1715.500  5685.156
17005.312  -6837.719
-13463.156  -8501.531
-32590.000  -2478.656
-32517.000  -1176.562
-10726.688  21050.156
14440.562  12477.906
1169.344  38929.406
-8841.938  -8486.438
23040.531  -41392.094
-1511.000  -26373.750
-26001.625  -15110.594
711.812  -15835.750
29923.031  -603.906
-21059.844  -2135.406
22518.781  11979.938
2189.250  13496.438
-29306.000  -19027.594
23443.031  6170.688
-38002.750  57951.000
26545.844  -11362.438
-4038.656  -34574.812
24360.438  -29972.719
-1595.969  3887.844
-13818.000  15053.438
-11112.844  9649.219
5349.906  -20470.625
-19675.875  7616.750
-6858.875  3134.000
-25187.219  42565.562
-4834.250  9813.812
10483.500  -11914.125
