        $SEQPAR
        DWELLTIME= 0.0001220000000000
        HZPPPM= 0.0000000000000000, 0.0002025255870733
        SEQ= ( 64 )<ISIS_31P>
        $END
        $NMID
        ID= '( 60 )<RAT_2_JAN_28>'
        FMTDAT= '%6.3f'
        TRAMP= 0.1100000000000000
        $END
5667.547  2595.230
16129.873  -16713.480
-15102.539  -25498.361
-11594.484  1778.420
-15531.408  3120.670
-17534.832  4329.012
-9310.576  -20748.805
-23274.590  -21441.961
-33161.770  -3671.271
-28036.443  -1201.613
-40840.100  18533.670
-12566.902  -1002.580
-12661.039  -10429.484
-8328.773  -4511.336
-897.828  3158.170
-14524.387  27340.367
-3725.367  10406.100
-10945.008  -2016.686
-6385.035  -10849.023
-8423.691  -20722.467
-12936.584  -9354.293
-4580.266  -6915.357
-1393.564  -5206.773
-9937.330  1219.379
-9969.191  -18426.582
-18075.004  -8208.266
-11950.877  1020.564
-8208.711  -269.350
-3190.619  -1713.117
-13869.062  -8479.729
-6380.393  -8016.523
-9745.332  3740.396
-6221.365  4882.896
-7686.201  4338.135
1263.688  -5840.729
-9183.293  -9576.357
-10160.137  -9702.227
6345.789  -5078.443
-5015.605  -3547.910
-2009.947  2320.141
-5757.994  -7655.744
-5114.404  -3031.490
-8320.955  -2307.463
-7742.096  -2522.611
-891.465  798.746
1047.330  5424.457
-5035.021  754.951
-2188.500  -8591.900
2016.699  447.807
-4165.359  -2975.398
-3955.551  -4424.604
-1418.695  -7758.879
-7443.115  -839.410
1150.602  615.238
-5727.742  -3582.479
-2405.615  -2333.775
-549.090  -1712.480
1472.588  -4978.990
-6807.537  -2935.615
-9565.506  4458.117
2299.193  606.088
4140.043  5008.926
-4056.812  4332.908
4718.697  -4256.947
4034.326  2436.771
-1777.092  -204.328
-4080.336  4335.037
-3987.164  7057.820
7949.719  -360.217
1310.898  -247.213
-2341.400  -9377.062
4915.104  2238.094
-6535.926  3817.254
-4748.197  -8055.881
-496.518  5379.814
937.521  2265.711
1210.701  2000.395
-7888.592  8347.361
2428.600  7554.506
1197.562  333.951
1975.805  632.650
-8810.359  -9533.881
5062.227  20.766
-5970.127  2221.670
-148.576  3105.689
-4977.527  -1870.072
912.994  128.939
-6317.010  1940.680
-6055.674  11194.729
-3235.059  -562.785
324.295  1191.742
-7142.621  6342.342
-390.391  -7529.740
-5853.086  1403.479
2182.262  3154.268
-7802.729  -282.221
-14551.805  5855.352
-803.857  -7312.027
-4400.844  -4908.605
-4979.738  5340.719
-2094.791  2018.021
-4040.592  7481.131
-5226.393  -8765.949
-6046.934  -1464.379
-810.979  -5428.600
-6426.564  -3844.539
-6240.338  -7369.262
1205.227  6414.812
-4400.877  -6274.543
-5511.326  3868.230
-2320.869  4705.084
-647.633  -1894.908
-5851.494  -1350.582
-3427.893  2193.885
-1445.973  926.625
-3551.068  -2622.121
1885.650  -403.779
5016.885  4117.189
-8727.207  7569.033
-3318.455  -4813.402
-4365.883  -2885.449
-10859.592  -3856.150
-6102.910  3943.357
5293.518  3545.617
1341.080  -4558.303
5215.602  2047.789
-9559.766  1763.600
-2693.465  5184.693
-9472.346  1810.943
-7955.852  -7140.906
-1095.207  -5651.297
-5227.416  922.379
-2437.484  -6217.154
-6904.275  8240.393
-251.010  2735.176
-648.357  7243.330
-2133.072  7557.348
3729.268  1984.588
4770.445  -139.707
-1337.350  -1702.023
4954.287  -1719.867
1937.062  6640.916
1584.551  -289.754
4483.625  2599.812
-392.225  -2809.094
-7336.920  5053.061
7607.355  11260.305
-2490.266  -4819.145
4605.746  3084.250
1109.131  -6926.350
5434.148  1495.680
221.355  -3935.486
1289.428  149.760
-4456.713  6613.615
-7212.875  1784.562
-1241.969  -2216.939
-1787.242  1842.506
-8328.520  7722.816
800.730  5065.184
-1000.363  1242.719
2252.053  1077.125
4213.229  -5542.650
-1529.621  326.123
4347.348  -7689.164
7349.195  3754.133
-5125.938  4305.402
-4180.314  -2677.039
-6049.543  -8818.209
-3324.213  2514.676
-716.684  1214.748
-1951.512  3281.979
6802.609  -4934.553
2714.512  13184.305
-2887.248  -3972.463
-8384.662  -7139.316
2357.623  -1913.500
-3494.482  2517.596
5408.629  -2324.613
1278.135  91.131
-3657.740  -284.555
-4060.900  3772.904
2314.799  -8548.115
671.889  2499.729
6307.154  2893.301
713.465  -2455.549
-1334.723  -3400.703
-4063.527  5028.125
-2943.152  -5397.930
1563.654  -1364.094
-734.016  -1491.135
-1609.318  4306.668
248.355  -452.684
-4049.811  -164.426
-3520.932  -60.980
-7434.189  3192.324
-5946.281  1783.586
6037.799  -1104.520
-2379.750  3987.100
-9405.447  3076.898
-8842.912  5160.609
-2919.223  -6185.338
-4601.963  -3281.359
2342.660  1633.928
4730.068  -4861.252
130.941  5407.264
4342.408  -6623.275
-4379.461  2097.324
-5482.814  7065.918
-841.615  300.568
-656.379  -5075.090
-108.922  -6432.420
-9199.424  -3199.725
3561.322  2207.689
-3617.203  -6709.582
-4943.352  -7370.275
-4071.447  -2245.779
-5747.021  -48.947
-3249.738  1227.801
3185.711  6220.475
5257.809  -1950.812
-323.135  -5933.451
-1769.332  1863.344
2019.705  3966.992
1391.982  -4.334
-8779.262  -7305.496
-1119.002  -8553.084
1297.303  -8690.373
-1834.537  1097.873
4395.645  6099.941
-3874.479  562.490
1045.195  1624.168
2426.645  -8173.961
-4044.893  4225.072
-4329.352  1000.645
1204.148  -6336.734
-4257.105  -713.943
7179.203  6020.744
-2502.762  -763.594
-1400.984  -2143.713
-7275.969  3047.604
-2389.418  1612.773
-1328.707  -1371.074
-3038.010  2266.908
-4857.855  -6068.154
-2621.527  -2817.736
-1547.953  5122.820
2590.172  4048.582
-1993.061  -292.367
-2089.652  3812.121
1170.500  -4339.521
257.672  2685.100
-3964.822  3171.166
467.156  -3204.312
3902.754  -1179.438
-3750.674  -725.707
1286.945  467.779
-1033.160  3462.994
153.506  -4205.350
1504.146  2761.527
-5193.041  5520.559
-4954.627  -4840.645
1881.936  2039.432
4213.244  5545.422
-4438.902  -44.043
1984.896  -6482.770
1432.133  -1015.293
-5463.336  -6392.322
-672.486  -4682.400
4974.994  5071.420
-2772.930  -6982.852
-5075.357  6109.615
-6516.107  -630.746
1917.074  384.904
-2853.092  2703.617
-2212.932  1760.523
2155.488  -3426.150
276.154  5772.877
2980.484  -10405.943
-6341.631  1112.223
-7133.492  -16.258
2324.553  2697.416
1290.906  9455.746
2027.561  -4041.850
-404.928  5904.758
4090.174  -263.379
-946.215  745.145
-5440.037  -2573.898
-2820.912  821.932
-3227.547  12.805
-2426.688  -5990.646
-3503.938  -7328.600
6296.617  2607.707
7490.084  -1141.371
3025.580  3125.316
-2961.742  -897.268
-6232.703  -704.475
-2681.838  -2602.842
2687.605  -7032.141
-304.207  -5319.369
2820.799  2726.213
-3387.549  1485.104
-3772.824  -1728.180
1930.889  -4978.178
-5738.012  -1181.188
-5353.402  4456.223
-1553.027  -6977.969
-639.881  -1808.426
-4105.037  -3801.160
-5576.107  10963.863
7577.887  -1831.561
6239.611  926.424
2428.381  -1149.369
-3436.564  -1348.414
-3605.602  -4283.283
7080.889  -7531.029
474.619  -3500.203
-2183.611  -7840.848
-3177.775  3017.234
-3475.508  -2490.182
-3826.869  -6510.521
-2316.711  -1719.600
697.416  -6812.859
4379.875  -1418.295
-7882.627  -4280.045
694.438  -402.041
4110.520  1618.281
-263.172  -4997.764
-2137.029  2536.529
-3377.322  -2904.922
5819.857  -5464.225
639.785  516.596
-1112.434  9638.971
752.502  -6212.600
270.170  -397.834
6022.260  -1154.031
1846.875  345.396
1533.150  217.340
-1385.447  161.270
-3811.627  3007.688
-900.676  3570.334
5994.299  -587.781
-356.691  -818.664
1111.871  -1223.035
4858.678  5472.020
-8946.125  -303.076
-261.098  3638.145
40.795  -1465.949
519.418  -8721.885
2343.137  3188.158
-1660.477  -386.527
9329.391  -1322.617
-4838.232  273.857
-3097.594  4000.816
3140.748  2110.863
-5962.041  -6431.730
-727.355  -2120.145
-4053.131  10060.143
3639.184  4722.500
2520.205  -7249.598
-3243.805  -6691.551
2279.809  -3359.652
-374.096  2326.570
3539.930  -3195.320
-5096.406  2654.426
806.537  4403.205
1275.090  6005.504
6282.576  -1039.248
-10124.738  -2752.225
-8291.939  2637.928
-865.213  -298.578
-3880.561  -7340.459
8100.664  10196.838
3614.232  2810.553
25.850  3940.084
-5053.043  4688.117
1961.033  -4436.986
-2390.814  503.373
-3623.920  1693.633
-2040.348  -1620.578
-3530.328  -4064.789
-2119.770  6045.377
-2585.656  -7828.580
811.299  7203.557
-4127.799  1223.719
5380.252  -1040.719
9983.768  2640.252
-1191.859  5557.064
-2727.086  -3175.479
-2002.047  1759.344
4851.271  1724.752
3828.121  -6661.314
2112.377  -310.383
-2609.533  -5683.912
-2241.928  -7083.711
1641.199  843.549
3162.721  -472.260
-302.539  -1971.611
1419.465  730.115
3491.725  2852.928
-4685.580  11922.158
-17.805  790.273
-1548.035  -4569.742
101.621  7744.000
-176.727  -12325.584
-4086.893  -11912.076
552.795  -4408.248
3815.984  4937.418
6369.264  2490.078
833.629  -3003.697
6927.697  1595.543
-1461.137  -7566.555
-8681.369  -4079.234
-563.459  -6951.824
4063.727  2158.066
7973.396  -3944.049
-2072.045  195.229
1885.924  -4636.943
-120.580  3865.361
-1416.492  1921.455
1731.271  1740.451
-2190.977  386.219
2923.500  -2947.840
-5656.977  -226.408
-2345.855  -528.277
6952.881  -1717.094
-833.969  -1075.410
1376.744  643.525
361.299  6717.725
-136.590  -356.562
-1.375  -3479.619
-308.342  -417.045
-1811.604  8302.344
-1648.504  -3960.047
-7221.422  -311.639
554.586  87.824
-1009.865  332.965
-6357.344  4056.859
-8018.104  2246.502
2896.490  -1400.109
5534.152  -7141.119
2734.389  -3994.492
345.113  -4045.707
-1995.688  -6234.812
-255.715  -13798.943
-937.656  -12113.359
3600.594  2512.924
-2800.975  1377.418
3349.707  3285.092
231.332  857.672
1559.447  6273.330
-119.176  3854.279
84.008  -10297.109
3461.762  -8531.146
-275.199  -469.645
4734.326  -5661.879
-1957.898  -821.975
-789.236  6655.865
-4328.482  -10800.426
-376.881  -5097.020
893.785  -808.939
4269.883  -1937.074
137.326  5252.354
-109.508  1311.973
-4912.686  -1008.994
1263.729  1285.258
-1560.555  -4934.826
3052.178  320.730
859.674  -7578.158
327.047  -7181.139
-1377.893  3584.885
2330.271  -14801.805
2732.906  10496.463
-4478.436  -4851.666
1769.852  2568.654
-6849.986  -274.379
6184.098  -4765.613
-3404.406  30.871
2480.648  293.816
421.281  3075.680
-3586.400  -5120.582
4035.877  -2428.119
-4104.834  -41.633
-2532.027  5396.795
1609.883  -7906.838
2605.666  -7721.150
1547.408  4167.260
995.037  -5729.578
3108.066  -2609.619
4557.896  3017.807
-812.387  9435.572
