        $SEQPAR
        ECHOTIME= 0.1300000000000000
        DWELLTIME= 0.0001220000000000
        HZPPPM= 0.0000000000000000, 0.0002025255087268
        SEQ= ( 64 )<Singlepulse_31P>
        $END
        $NMID
        ID= '( 60 )<NADH_20mM>'
        FMTDAT= '%6.3f'
        TRAMP= 0.1100000000000000
        $END
-615254.906  -101128.969
-1919118.688  -293056.188
-1807302.062  -423859.281
-1747910.688  -590438.906
-1651254.875  -545648.875
-1748909.781  -653782.781
-1640342.406  -805746.375
-1581457.438  -827623.500
-1565479.938  -898409.188
-1534057.625  -983531.281
-1417020.062  -1022825.438
-1407815.781  -1091922.062
-1336283.656  -1167268.812
-1280623.188  -1224701.469
-1194305.469  -1247402.344
-1185991.906  -1330575.344
-1033101.156  -1359903.719
-960094.469  -1397558.812
-874699.281  -1432377.156
-823123.938  -1445673.156
-744909.906  -1480626.781
-632116.500  -1514212.500
-572981.062  -1505876.688
-485891.219  -1565141.750
-399013.938  -1564105.188
-367361.281  -1552194.594
-241087.406  -1575986.031
-187755.500  -1565927.844
-72237.875  -1562160.812
-31714.781  -1566480.281
62349.438  -1545900.469
162315.406  -1527456.750
204592.875  -1498815.844
258652.094  -1474770.000
357374.844  -1390197.062
412928.406  -1428045.875
469466.719  -1395794.594
562519.188  -1319665.562
625678.594  -1310436.344
681336.344  -1239229.594
745767.406  -1216663.938
766998.938  -1154326.375
864925.156  -1114692.219
855822.281  -1077032.969
931127.750  -994858.125
962192.219  -933159.344
1004540.938  -871919.469
1047629.594  -834354.406
1085702.969  -744951.125
1110087.750  -663890.938
1133343.281  -631868.688
1152235.500  -549617.750
1160930.969  -494835.844
1209708.250  -429274.594
1183726.250  -334498.906
1187024.531  -303068.969
1242695.750  -245264.750
1237992.438  -173265.250
1207015.781  -112403.625
1223657.000  -53269.188
1180933.219  45129.375
1159018.312  106156.500
1141302.906  156945.500
1132925.094  218313.812
1085776.219  286173.250
1115468.156  343024.281
1054618.688  345493.469
1041795.969  444281.625
997862.375  496309.875
961602.281  528063.562
927054.812  571075.344
882508.281  621396.531
858985.625  667850.469
794273.219  714763.312
760524.406  736241.188
727292.375  791407.719
695240.156  808804.062
622861.688  817747.375
579745.312  876573.844
550200.469  914956.594
468831.000  925888.125
418085.250  925420.625
395562.656  906073.031
341541.469  921665.094
256110.312  951888.625
228747.344  966944.688
199934.000  964657.781
149983.969  970473.344
60983.312  969578.219
1180.281  955852.406
-27801.188  954604.156
-78164.719  982945.594
-131162.188  963452.875
-198776.938  977223.781
-277420.688  899686.156
-321554.281  924219.656
-311738.969  875570.938
-369117.656  854713.438
-407194.125  847037.969
-438722.625  828402.562
-520955.031  797384.281
-527771.750  746710.594
-580332.844  700796.625
-589593.312  709087.344
-626641.688  685535.938
-648476.750  626771.500
-649176.531  577858.156
-721255.938  546610.594
-774718.844  528815.844
-771239.469  487969.281
-800479.531  415233.719
-808597.938  379159.406
-813645.250  338410.375
-810935.500  320059.156
-824978.812  281037.906
-885406.281  214508.094
-858158.719  179762.250
-870382.469  139101.469
-870305.562  72979.531
-849278.219  50191.312
-852637.281  -497.906
-848350.656  -64781.094
-845971.938  -92900.094
-843252.344  -135862.219
-816068.594  -183374.812
-847468.781  -191247.594
-788865.500  -269594.656
-775474.375  -329553.812
-779536.625  -326905.312
-763421.156  -394080.000
-739944.719  -439939.344
-702935.469  -446485.719
-678979.250  -500556.219
-648283.281  -523115.438
-624227.375  -543845.688
-590820.344  -567243.062
-568654.906  -600496.781
-501638.938  -638214.188
-496890.406  -668703.625
-452078.812  -680208.844
-422799.219  -718462.969
-370855.531  -737949.594
-345700.969  -752274.031
-292957.000  -759899.250
-269570.844  -791054.969
-226760.219  -737104.844
-193198.125  -782012.250
-148927.219  -753653.281
-64014.844  -802558.000
-61225.906  -811265.000
-15788.875  -791230.781
25123.375  -777741.219
71380.438  -768740.188
96904.000  -806811.562
126261.469  -765699.531
148454.312  -738302.781
222451.594  -742477.750
258804.281  -743327.281
309808.594  -724344.656
324475.969  -678736.469
358033.438  -665919.812
410375.312  -651271.312
458547.750  -622158.500
472111.156  -608490.531
488169.062  -576522.656
526638.156  -537054.156
548907.375  -522492.531
564969.594  -509418.500
577780.094  -450953.156
665699.438  -417493.625
660711.188  -360467.906
686416.594  -349981.156
703762.250  -288870.469
706691.500  -260739.500
745488.688  -213836.875
722468.562  -209710.156
714504.312  -165451.625
741391.906  -137458.969
742491.375  -105210.000
725133.250  -50419.906
740575.156  10671.844
720172.469  34946.156
705442.188  31033.188
718905.500  140387.750
725786.688  133892.156
724184.625  195373.875
691590.250  212579.250
662973.250  246116.938
656495.562  297717.625
627600.156  290847.031
614350.719  351449.250
589726.438  398168.844
540687.000  451590.469
571427.750  443769.781
520062.344  456510.500
491932.219  530940.562
477965.688  512915.625
463213.469  535200.438
409449.562  582838.781
372007.375  571137.188
337559.719  621021.562
288531.469  628872.188
276509.938  655248.250
238698.594  632181.094
204131.375  646925.938
170857.625  672705.062
121802.625  661714.906
121962.219  665860.438
45718.469  660766.750
-1739.406  645968.688
16508.906  682260.031
-46745.219  670297.688
-68324.062  653695.406
-92594.500  651001.062
-167661.375  649455.594
-204039.219  644617.781
-189227.219  637387.156
-223450.406  619846.125
-308857.719  589988.156
-310224.281  582417.812
-353249.188  567691.719
-331146.938  525888.781
-407069.469  522843.875
-395840.250  491048.625
-428371.188  458702.719
-451431.969  444470.594
-503177.625  430925.875
-514101.750  378131.438
-533243.406  365006.344
-567036.312  350533.688
-554476.469  316574.156
-563000.156  254531.281
-579073.531  251292.531
-563398.406  212969.469
-583983.562  182661.125
-633576.375  122511.562
-636129.375  97860.031
-626048.531  93720.594
-660703.094  58854.062
-624939.969  31046.656
-619834.625  -13708.062
-632701.844  -41841.250
-611309.250  -105312.719
-606117.906  -146288.594
-603912.844  -133016.406
-619035.812  -173645.125
-594005.469  -199363.188
-606476.219  -236339.844
-553766.781  -273471.094
-561184.406  -323697.250
-507159.844  -315904.406
-511696.562  -344500.938
-492771.750  -393708.406
-477878.969  -431116.625
-431525.906  -431870.500
-420076.812  -433131.156
-383717.344  -487882.062
-375915.125  -494225.781
-336272.938  -506189.969
-300696.656  -512482.625
-281507.312  -546621.312
-259408.062  -539546.000
-218539.812  -548021.969
-212253.875  -580240.094
-143986.219  -555918.438
-131753.750  -586422.188
-96021.062  -607106.562
-48130.562  -610488.219
-41915.219  -585846.031
2792.812  -578240.344
13956.719  -576385.938
49687.312  -580321.719
83212.031  -582447.719
129622.688  -604850.438
168315.281  -589972.812
168222.875  -569352.500
206499.312  -574260.812
230900.438  -533636.438
258320.625  -542149.312
312623.031  -512781.031
327325.094  -496949.125
323857.156  -490787.625
349101.969  -450500.406
397322.125  -435874.344
421277.906  -407417.250
403769.312  -377333.656
453224.844  -367161.062
466385.469  -340504.438
494285.312  -298419.594
523642.969  -284949.125
531916.219  -229843.688
522994.719  -227060.625
531282.094  -173202.531
559196.594  -173357.531
534189.531  -125018.562
562172.188  -110415.000
534842.656  -78285.969
568677.531  -55429.625
563305.562  -25819.969
547322.719  1593.000
551433.438  -917.625
547605.125  75844.625
532731.219  133570.562
541218.750  132673.688
527475.156  170165.812
545922.938  181224.812
514633.562  214750.062
487880.000  258150.188
474508.062  267997.500
436910.188  300734.062
455357.656  307913.000
451984.094  330564.469
420871.531  395807.594
405537.469  362621.906
352800.219  425067.594
355775.094  431183.000
316284.656  414874.594
317725.938  489746.500
279645.094  472128.469
263632.375  473103.750
236314.594  474156.062
212909.781  497666.875
167063.375  517341.156
130409.844  508286.438
135832.031  538265.438
81973.406  526457.312
75727.219  503135.156
30427.344  576162.781
-27080.000  529697.094
-37274.938  527760.469
-27515.125  553975.250
-66079.594  541066.438
-85206.281  501521.969
-126494.719  531080.125
-158754.562  520112.406
-154061.719  490237.406
-228568.625  512500.625
-253994.188  504334.031
-258836.406  444616.000
-312446.406  467610.281
-298484.875  424196.938
-304610.000  364139.438
-355389.625  400751.125
-367537.000  344905.062
-359024.438  315045.219
-402358.594  341478.312
-411590.688  281551.219
-395597.844  287580.344
-441795.156  265361.219
-418483.469  244174.094
-459724.219  224967.500
-476919.688  199658.312
-466705.656  171762.938
-473143.469  135940.344
-492062.125  104487.312
-486979.781  92839.188
-476457.656  74814.000
-499064.844  43730.031
-482363.875  20487.562
-506022.469  -850.312
-463541.219  -17330.250
-482458.812  -77502.031
-451183.781  -89822.594
-477559.312  -116979.375
-438200.344  -141623.156
-464036.281  -152948.750
-427676.406  -198271.531
-401529.562  -201111.312
-420132.344  -189786.406
-407465.438  -207276.688
-409964.562  -252296.906
-376060.625  -243508.844
-352902.062  -256304.812
-340610.625  -274751.000
-301462.688  -307162.625
-305332.688  -351937.125
-278092.125  -366298.469
-278679.719  -334519.625
-271950.844  -365287.625
-210413.406  -336799.031
-205898.969  -378282.750
-197044.906  -405173.938
-171234.031  -387645.312
-122535.875  -403322.219
-126671.562  -389994.500
-111198.125  -388932.688
-96780.875  -394291.531
-50260.656  -402651.281
-16937.438  -372685.031
-11968.375  -403280.375
-29031.719  -382682.062
39976.656  -378573.219
53521.969  -399082.812
59481.000  -388416.750
108502.125  -390841.281
78058.750  -384969.438
100099.969  -363554.375
158124.250  -366418.844
172051.312  -355993.031
201287.281  -326999.375
169243.312  -308280.281
203323.500  -304889.531
