        $SEQPAR
        DWELLTIME= 0.0001220000000000
        HZPPPM= 0.0000000000000000, 0.0002025255087268
        SEQ= ( 64 )<ISIS_31P>
        $END
        $NMID
        ID= '( 60 )<NADH_20mM>'
        FMTDAT= '%6.3f'
        TRAMP= 0.1100000000000000
        $END
82356.625  -176002.750
1688.875  -478078.000
-187462.250  -405162.500
-346355.000  -307253.125
-415171.500  -26592.000
-417491.875  139730.000
-352663.500  313859.000
-218368.000  438774.375
18438.250  341436.250
269348.125  396099.375
312461.875  204622.250
456456.250  117939.500
433080.500  -188338.125
284739.875  -275151.250
131649.875  -352728.750
-62709.375  -446890.500
-200991.125  -348864.125
-380857.125  -152900.125
-426694.250  -31409.625
-343468.250  132978.250
-231164.875  338168.875
-79526.500  319578.625
122518.625  441959.625
240408.375  255220.125
347428.625  112775.625
422579.375  -71502.250
320238.125  -158509.125
235149.250  -325404.250
38684.625  -318562.000
-149676.875  -321274.125
-218859.375  -372965.875
-288278.875  -65792.750
-372615.125  1510.625
-314364.000  223534.250
-174432.875  295264.750
34708.375  348810.875
67561.000  346107.250
249553.500  262464.875
267863.250  14935.375
281472.250  -84659.125
282177.000  -171683.375
141168.750  -277885.750
-19778.875  -342928.625
-152896.625  -305196.500
-249086.000  -176530.125
-327158.500  -19747.250
-300856.250  81269.250
-200555.500  231769.375
-99746.000  221888.500
-10953.500  365201.250
110441.000  344606.250
238380.125  150813.125
253867.875  106440.250
293780.375  -128464.750
192091.500  -170411.375
102144.125  -273696.750
-56645.125  -252661.875
-129482.375  -277358.750
-251702.125  -162070.000
-280208.000  13890.875
-281310.625  63651.750
-200795.625  215745.625
-120673.250  282620.500
22197.625  298497.500
158514.250  213486.500
272047.375  87166.750
305733.250  51346.500
307088.000  -158640.125
220133.375  -246820.250
113970.375  -288302.750
23893.750  -249299.625
-178882.750  -243777.750
-271964.625  -54378.500
-312575.375  21746.125
-223835.500  141738.000
-90099.625  120533.750
-8996.500  232480.000
92548.500  246811.625
192749.750  165384.625
210322.625  79060.750
264038.625  37972.875
252785.250  -160282.125
78945.750  -244659.625
7456.000  -249954.375
-105430.000  -249211.375
-138773.750  -155458.625
-244525.500  -76784.250
-256866.500  28012.375
-250967.750  116733.375
-165114.375  200464.750
57879.875  217929.625
110479.500  222895.125
166593.500  167655.250
277317.625  51253.625
212501.125  -91630.375
216890.625  -114689.500
145671.250  -219362.875
-7216.250  -205262.750
-179342.375  -211083.125
-153725.125  -114103.750
-230086.875  -53787.500
-294243.750  45131.250
-181760.250  125565.750
-80095.250  169893.750
9672.250  265603.625
128343.000  171815.000
231596.875  120344.375
274811.000  96535.250
246651.750  -48866.000
129657.875  -212139.125
61560.000  -186577.875
-48096.500  -302253.375
-104836.375  -175534.000
-208401.750  -161303.500
-198288.250  9859.500
-232399.500  80861.375
-112800.375  204861.500
-22233.250  200368.750
27580.375  219504.500
140684.750  201016.375
183177.500  108534.000
233135.125  -25537.000
165940.375  -103454.000
122303.750  -154444.750
12700.625  -184399.500
-130442.875  -211283.875
-127455.875  -189860.625
-216823.875  -76299.375
-264465.375  18049.875
-198593.125  106820.125
-94206.500  210893.250
45762.125  335307.875
19029.000  220718.750
187282.375  173531.750
168855.250  53951.000
254026.375  -61253.500
178215.000  -122867.875
132642.125  -231113.250
1722.375  -227281.000
-78504.375  -208358.250
-218128.125  -136024.875
-253614.375  -42511.750
-246449.625  71038.125
-158932.500  117919.500
-16793.125  199739.375
58085.750  233265.500
125523.750  217495.000
169730.000  168879.000
217570.375  15627.000
237192.375  -98887.250
198207.500  -133664.625
74839.500  -207465.625
-69260.000  -175231.500
-124828.125  -178407.125
-179317.250  -128285.250
-205491.875  -12644.750
-275697.250  78522.125
-104528.875  196289.250
-59161.500  227992.750
38941.375  228796.375
163735.250  194686.250
251724.625  37482.000
228427.875  18400.125
247265.375  -85335.500
133858.750  -134126.250
-7868.250  -187927.500
-21475.000  -174601.000
-116267.000  -155411.500
-225760.750  -28572.625
-196906.875  12867.250
-125925.250  106505.750
-154357.625  200606.500
-38216.125  288623.375
79971.125  217945.750
173236.875  127719.250
218897.875  69132.125
134410.125  -85071.375
137339.125  -122768.375
89540.250  -188615.750
16706.875  -199083.750
-41821.500  -269463.625
-151204.500  -153530.750
-238036.750  8059.125
-229878.375  1575.250
-152768.625  118307.625
-101631.000  182432.125
-9042.000  226081.875
112217.000  215797.250
150190.000  84495.875
150194.875  14049.375
209569.500  -97579.000
174250.375  -171034.125
103000.875  -254567.500
-14301.375  -190995.375
-117450.125  -154089.125
-110554.375  -121517.125
-180308.500  -17868.625
-186672.625  22456.500
-119011.250  108304.000
-16353.500  232673.250
25974.750  249505.625
139708.750  156518.375
194062.625  131007.125
181297.625  9452.000
192970.375  -48860.500
129520.375  -75530.250
42316.000  -139501.500
-26232.750  -138032.000
-92091.625  -146532.750
-154682.000  -48949.000
-223491.625  -20945.625
-204701.375  46084.875
-155683.125  167908.500
-104029.875  220387.750
51298.875  203472.750
62512.125  153153.875
157896.875  71524.750
151337.625  8555.625
197279.625  -87353.250
168710.375  -175473.250
46519.500  -213616.375
-36240.625  -186997.500
-127641.625  -161287.000
-177728.875  -58119.125
-165970.250  -12208.375
-152302.875  68027.750
-99587.125  173547.750
-58604.625  199160.000
80652.625  194368.500
138758.125  199261.125
184064.500  86617.375
158050.875  7834.875
190704.000  -67865.500
56760.000  -151704.000
-1289.250  -185622.750
-101877.625  -163636.750
-153415.500  -136957.375
-197319.000  -36046.250
-219782.750  33677.625
-98575.375  79976.000
-20861.750  211937.500
37235.000  120427.250
23463.250  260464.875
131659.500  107696.625
196732.250  79185.125
170930.750  -61231.000
154171.250  -107970.625
126490.750  -182517.000
-91297.375  -149463.375
-128392.250  -185925.250
-133481.875  -95351.875
-190099.500  -17033.125
-183454.625  90291.750
-158291.000  113972.250
-92901.875  172427.000
-34894.250  165393.750
93961.500  75122.000
248897.875  83609.375
124914.875  -6098.750
197557.750  -106031.250
98739.875  -122292.625
63477.625  -140714.375
-64343.375  -208212.875
-105771.750  -205142.000
-172601.375  -161798.625
-199388.750  37791.875
-200774.875  55879.000
-86521.875  132727.000
-31343.750  207257.875
1626.750  147964.125
152718.500  128059.000
149528.250  93316.000
233666.250  -7441.875
109878.625  -25664.250
53569.625  -154279.750
7144.250  -183696.000
-40636.250  -218132.750
-171318.250  -147765.000
-124853.625  -100701.250
-191166.125  13063.000
-188096.500  134723.875
-67680.750  105041.375
-50708.625  219483.625
76292.375  131007.250
132221.125  87510.500
190394.875  2386.250
142225.000  -72288.500
85577.875  -57511.250
69018.625  -167073.125
-14791.750  -184735.500
-76966.125  -156176.750
-73880.500  -144301.875
-168890.125  -79152.625
-244438.750  52575.500
-92332.375  47570.875
-45517.250  114131.750
-71300.000  202907.625
64890.750  176759.875
169079.125  103039.000
178266.000  10496.625
133256.625  -41786.625
147912.750  -150855.875
48316.125  -123270.875
-88341.250  -195942.875
-84043.375  -153971.375
-204338.250  -97966.750
-220803.625  -21007.750
-100797.875  92827.250
-147669.125  130707.125
-48497.375  113499.750
52704.500  202890.000
112022.500  163573.250
158705.000  72324.875
193956.500  49352.875
85505.375  -91222.375
117680.500  -126423.750
53498.500  -183118.500
2100.250  -209597.500
-80709.500  -167153.500
-165477.500  -74321.125
-159314.750  -43351.000
-178716.750  131991.625
-96812.625  131682.000
-86905.750  114702.625
24441.750  189637.125
204986.625  135244.625
190488.500  13356.875
144183.750  -29208.750
194482.500  -89388.750
112670.250  -213802.250
4828.875  -131770.500
-67618.500  -163271.500
-153579.625  -118324.000
-206531.250  -8334.750
-205787.750  29108.500
-120007.750  136129.500
-91324.125  130910.000
-16370.875  167300.375
45401.000  91398.750
146280.125  87859.000
127994.375  87885.625
176821.500  -35504.875
86059.000  -122307.125
88517.750  -134164.500
-5903.500  -223861.625
-87407.125  -148462.250
-136575.125  -29542.250
-192480.875  -1896.875
-180255.375  49596.125
-139463.750  203018.000
-38334.250  181843.375
43987.250  218191.375
105488.250  160258.875
123258.375  97436.500
135161.000  61550.250
133471.500  -19360.625
113757.750  -159065.000
-30480.250  -115823.875
-29820.125  -196628.375
-41264.750  -75448.875
-133943.750  -70868.875
-109313.250  14503.375
-92918.750  54307.625
-79246.750  149406.750
-32205.875  127919.875
28923.875  173197.375
92701.625  94045.250
116270.625  39740.500
154865.500  3471.125
145184.500  -67709.625
70881.750  -132319.250
2232.875  -160326.375
-28806.250  -64924.500
-32544.375  -97346.875
-125873.375  -66814.250
-136171.875  6416.250
-136573.625  101491.750
-92183.625  143512.375
27307.375  149139.500
16711.375  126828.000
89208.500  26025.000
178160.000  33520.125
139902.375  -14793.500
104574.625  -72112.250
37097.500  -152854.375
-66688.875  -140477.000
-6840.375  -119570.375
-126215.750  -58327.625
-155618.000  -12933.250
-150909.250  2921.125
-120385.250  76335.000
-65865.375  106896.750
43005.250  114506.250
64593.500  91962.375
112895.875  121977.875
99202.750  30085.750
143151.000  -22878.125
40036.500  -44600.250
25132.750  -158485.750
-60040.750  -156271.875
-78303.625  -76355.000
-109599.625  -158185.375
-108954.000  -5437.250
-66543.000  31774.750
-41889.000  94082.250
-56972.250  141944.500
-8724.375  146646.500
118135.875  170905.750
92357.500  49720.750
103500.375  -14740.000
102971.125  -98020.625
76955.500  -75313.875
51054.625  -137876.375
1262.625  -142960.500
-72971.750  -117593.250
-66422.375  -25305.625
-188352.750  15571.375
-88147.250  34690.500
-26169.750  60118.750
