        $SEQPAR
        ECHOTIME= 0.1300000000000000
        DWELLTIME= 0.0001220000000000
        HZPPPM= 0.0000000000000000, 0.0002025255087268
        SEQ= ( 64 )<Singlepulse_31P>
        $END
        $NMID
        ID= '( 60 )<NADH_20mM>'
        FMTDAT= '%6.3f'
        TRAMP= 0.1100000000000000
        $END
-403286.594  -137021.219
-1226932.781  -391412.594
-1135387.938  -459972.844
-1118616.375  -574021.156
-1000760.469  -586016.844
-1057714.188  -650443.625
-982781.719  -740449.562
-924783.562  -762640.281
-861570.812  -801801.125
-880934.844  -894633.531
-750582.312  -884580.062
-703806.656  -925713.688
-667030.188  -982557.375
-574916.688  -1029283.688
-534427.688  -1076185.281
-481838.125  -1076471.750
-398115.438  -1101014.812
-315847.469  -1102406.062
-265333.719  -1110485.906
-208817.156  -1140421.625
-84516.094  -1099254.906
-67105.625  -1110010.688
24818.969  -1097049.594
117718.844  -1093391.281
182183.969  -1061861.688
218269.281  -1067312.625
294085.625  -1059288.562
318302.438  -1013636.875
414211.625  -981405.594
435525.000  -924802.625
498826.375  -906263.094
543826.312  -851600.062
596574.344  -830839.312
638475.000  -785733.562
685058.594  -737408.312
707191.875  -670759.750
746720.750  -618843.219
793210.156  -586848.000
826767.875  -534016.656
828520.312  -471905.594
840861.375  -440071.719
874070.156  -351708.938
859212.250  -287719.062
892632.625  -213583.594
885332.531  -161110.375
895568.750  -137414.344
895077.750  -87323.219
877578.250  33443.812
871185.625  65969.812
863083.250  94556.500
857722.594  157245.344
800257.281  193270.188
837293.562  236604.656
790987.625  302364.562
742154.750  406243.406
731859.812  388631.906
693490.281  458925.812
692325.156  475503.031
601822.562  540569.469
570803.469  552517.656
532178.344  584134.812
510646.531  626024.250
443900.906  675738.750
403748.969  688369.750
333213.594  704656.656
317716.094  712651.844
243725.062  732861.969
236884.625  714176.312
169813.938  721230.281
136540.500  731686.938
102450.875  727196.312
54484.438  724410.625
-9105.438  700640.906
-47293.812  744808.781
-107396.656  712305.344
-168249.062  698571.500
-181847.656  677092.875
-241495.469  659231.562
-293560.188  628851.938
-326775.250  620718.781
-339656.875  566129.656
-442699.594  563541.781
-412111.750  507109.344
-432273.844  505600.219
-488422.969  454278.562
-504773.688  457071.125
-527371.312  398833.500
-554252.969  403727.438
-554086.125  305857.062
-579701.938  289104.031
-593144.344  244409.625
-616292.562  200454.844
-613189.000  157761.438
-628909.344  109594.562
-653596.844  109024.562
-653004.625  52546.781
-635458.062  274.750
-627129.875  -34161.875
-631477.719  -82358.938
-638820.688  -108521.812
-616164.969  -182864.938
-590503.219  -189002.531
-606376.344  -212633.625
-572353.594  -207227.031
-550279.469  -299534.688
-542382.188  -313403.156
-517828.000  -355521.531
-485202.875  -392950.500
-442352.938  -401262.500
-398384.344  -436352.125
-415875.250  -458288.844
-382938.531  -482597.750
-306386.250  -499263.312
-296905.375  -505901.375
-256021.812  -507318.031
-224667.031  -533209.688
-195027.812  -581622.344
-155695.156  -564226.438
-135617.844  -548474.281
-80468.594  -547701.344
-65290.344  -597127.500
-63071.375  -595651.781
24104.094  -565033.688
58944.219  -572898.875
114677.656  -574370.719
87084.312  -575676.938
157694.781  -538640.094
195881.094  -543339.500
224486.469  -522795.531
249014.312  -518641.219
279974.406  -488190.531
316504.031  -441337.375
334043.156  -439359.625
366699.375  -424513.594
413123.562  -399085.156
414096.906  -379668.750
461917.938  -347266.688
480484.531  -320414.438
458029.250  -276635.125
488793.812  -246632.750
538640.969  -215375.844
536501.156  -201178.656
535950.781  -169568.250
522640.625  -160052.812
501233.656  -96318.781
535816.344  -49707.406
526953.750  -34612.844
542795.938  -7103.438
525427.000  47109.500
539152.500  80852.500
529352.094  106943.938
525148.938  174583.125
497342.000  157035.938
488738.969  223855.906
507974.250  248861.375
466793.125  275892.781
412807.062  304697.844
380257.469  355664.094
381631.594  341083.844
373443.844  379780.750
330058.219  375455.844
304285.719  421314.750
288941.812  411443.594
231400.562  481989.375
205586.469  486921.562
211195.531  472684.656
203620.875  506626.000
167874.562  503798.594
95237.625  488284.469
81186.594  562977.781
17132.844  521371.969
4253.094  509508.625
-2441.688  536510.594
-49497.500  509274.656
-92035.094  519875.000
-98320.500  481887.375
-124452.219  460128.562
-166913.031  489040.344
-217719.406  481596.375
-219048.156  429542.844
-285539.125  412759.781
-291276.125  425883.562
-326840.969  397517.156
-323723.344  362223.906
-376319.844  327890.656
-396961.281  313171.281
-429750.219  300449.062
-408319.062  244623.719
-418778.062  248239.375
-448923.969  211811.969
-447399.938  167176.438
-461177.875  156915.344
-494778.781  126178.688
-483911.625  100063.469
-469436.281  71758.000
-480701.594  -4148.031
-443687.438  -6717.094
-462292.688  -35447.906
-449648.562  -61534.812
-452459.031  -78618.656
-494043.031  -101005.469
-456076.969  -140675.281
-433329.094  -181142.250
-433260.312  -262115.188
-406318.469  -231529.500
-396234.125  -254121.406
-363424.812  -306867.281
-317627.688  -339849.344
-332161.312  -327739.250
-308798.438  -341716.938
-291345.781  -372623.625
-250467.906  -383363.969
-214009.625  -392640.875
-236988.562  -385534.375
-183193.906  -418192.219
-147530.250  -398191.844
-142629.188  -435274.531
-98630.625  -439484.188
-63379.312  -464484.406
-32921.188  -438406.781
-6951.094  -437113.625
24881.500  -484145.875
44496.438  -438832.812
91410.875  -411924.469
95902.344  -433890.625
139417.000  -436826.062
159867.562  -407837.906
191771.625  -396823.031
231242.781  -382694.469
240111.094  -407804.281
278565.750  -347506.188
252142.625  -345861.188
282484.812  -313059.219
300565.250  -303036.375
321779.438  -234211.906
352064.188  -245953.688
362049.344  -261312.000
406958.625  -191474.344
377194.188  -186457.562
427540.000  -148039.719
398204.719  -154238.844
430722.125  -108164.781
431268.750  -85729.219
441091.594  -35843.469
415699.188  -13167.219
440026.062  -5662.031
438665.219  34893.406
420007.875  55578.406
405928.125  58734.156
411730.906  94445.875
402960.094  154125.812
385363.375  159981.031
395497.000  177283.719
381312.625  211625.188
378240.219  217282.812
341057.438  272536.281
330644.031  282002.906
309771.000  286947.094
284051.812  321685.875
278955.594  300823.281
212499.188  347799.938
216514.562  384530.031
189719.656  398699.938
182982.469  369695.469
121924.594  394503.312
84921.188  405139.750
81134.094  400276.781
32840.156  413718.781
31114.375  406614.312
-4978.750  424384.188
15838.938  389852.375
-4991.281  405410.469
-84940.531  418278.688
-97021.844  431920.094
-90843.938  383273.469
-122787.531  365465.219
-184257.125  367709.094
-190088.094  360760.656
-193924.156  335462.000
-208197.156  312726.875
-222307.562  287549.625
-259074.500  312532.969
-286557.375  291946.688
-292780.500  276776.719
-309866.969  245129.562
-325891.406  236330.812
-329511.906  216421.250
-383276.125  175145.906
-367551.625  144102.500
-382788.500  122539.406
-398709.000  127293.312
-386941.031  77275.125
-375404.156  39279.500
-400854.750  16298.344
-433617.188  -25419.031
-385551.031  -33574.750
-396925.344  -74585.500
-369263.312  -70255.781
-406791.125  -116107.219
-374993.469  -128359.969
-342670.781  -148164.594
-334955.594  -179984.750
-336651.562  -185278.094
-349836.500  -219280.625
-322619.938  -226527.281
-317395.969  -271666.875
-258615.750  -262938.469
-266465.781  -310902.625
-225137.594  -303451.000
-198782.938  -304590.656
-191739.844  -334697.688
-176343.781  -337935.281
-144152.750  -360236.938
-138657.094  -367583.844
-90614.750  -362009.156
-87397.562  -382741.781
-62365.719  -357627.812
-40694.969  -417026.750
9797.719  -353847.625
48150.250  -390844.062
74164.250  -380324.188
87078.656  -402627.531
80408.531  -395536.031
115760.125  -362309.156
144057.656  -338558.031
155231.594  -334479.438
166286.375  -347575.781
197936.750  -318297.250
206063.438  -279528.344
243194.344  -263817.812
246984.812  -295619.781
293066.156  -268664.906
292145.719  -231061.469
281648.531  -208104.844
293826.125  -190399.000
301570.031  -113604.312
338644.719  -120875.531
339203.625  -146329.219
348484.438  -95088.781
363205.844  -85372.844
380034.094  -80750.062
384811.438  -52060.906
356093.000  -45514.250
335202.344  3407.094
344873.281  37249.750
355243.906  6567.688
383953.531  84056.750
354152.094  82601.625
336166.938  107178.094
325787.844  131910.062
312763.906  144996.531
311000.000  153143.688
301307.375  187997.812
258340.156  202742.125
268210.625  199258.656
261225.188  233512.375
255606.688  231715.719
229592.125  252243.844
209340.344  267641.156
176524.500  283493.844
147075.219  291619.562
152451.625  313037.406
123306.812  326224.500
97294.125  322666.062
108896.375  315020.625
51776.312  348725.844
58613.594  303382.750
43349.875  346770.438
4858.906  325300.750
-7273.688  301651.125
-42518.656  329267.281
-55399.719  319091.906
-61228.906  312762.719
-83445.875  313853.312
-119568.312  284739.250
-127098.844  286700.500
-93613.281  291216.250
-168934.625  252769.406
-161600.969  264259.000
-170473.031  267944.062
-176900.906  230361.438
-209338.188  200904.656
-260235.438  183758.531
-244688.594  147410.344
-237519.406  179232.156
-254025.812  150873.469
-261160.250  109985.781
-273441.219  98706.094
-304101.688  63610.156
-272183.062  110754.844
-264531.281  72459.844
-254785.625  19966.406
-273605.531  49898.625
-283566.562  15506.750
-252609.031  -4711.438
-261500.188  -7406.312
-277002.281  -44405.812
-272435.531  -52306.094
-216678.625  -87684.500
-249108.531  -63590.250
-239251.500  -102692.906
-260766.188  -135091.500
-213423.156  -134547.906
-190345.125  -128844.906
-176869.500  -156036.281
-169965.156  -173986.625
-174245.969  -153954.281
