        $SEQPAR
        ECHOTIME= 0.1300000000000000
        DWELLTIME= 0.0001220000000000
        HZPPPM= 0.0000000000000000, 0.0002025255087268
        SEQ= ( 64 )<Singlepulse_31P>
        $END
        $NMID
        ID= '( 60 )<NADH_20mM>'
        FMTDAT= '%6.3f'
        TRAMP= 0.1100000000000000
        $END
-459836.719  -16845.812
-1512926.750  -37492.406
-1440497.125  -174947.781
-1387033.438  -237974.062
-1365141.469  -185110.250
-1459064.812  -289820.531
-1338724.250  -354293.031
-1336720.188  -344793.875
-1361009.844  -373062.344
-1365322.000  -456029.688
-1255687.781  -466028.344
-1313722.188  -488112.000
-1267916.062  -545084.625
-1223251.656  -556592.344
-1221877.406  -594755.500
-1193319.625  -636701.312
-1134456.844  -679935.594
-1112985.156  -708920.969
-1079143.250  -760352.500
-1086769.031  -773795.844
-1019664.625  -806998.625
-972178.656  -814937.000
-925178.906  -835865.750
-926632.812  -876506.844
-870717.344  -888976.344
-843011.531  -916508.812
-769372.750  -903826.375
-744514.375  -969396.875
-716312.094  -968359.438
-653714.438  -964425.125
-649638.312  -983846.469
-616022.969  -983662.375
-592405.406  -1006543.375
-538889.688  -1030453.625
-508177.719  -1045696.562
-472328.625  -1005022.469
-414115.031  -1020543.281
-360689.438  -1019908.594
-365869.719  -1030315.781
-296059.969  -1059815.281
-220402.938  -1053134.094
-210437.438  -1025307.688
-190005.188  -1035793.875
-153019.594  -1028617.906
-118045.969  -1039545.500
-98466.906  -1022908.094
-37825.438  -997872.500
-8349.406  -1003726.250
21954.656  -995783.000
52596.000  -949503.750
116340.594  -964638.500
145675.562  -961012.219
160820.938  -911367.281
188387.906  -912823.281
213317.000  -938370.406
269065.625  -881390.312
273106.656  -857541.969
306326.656  -847382.438
356223.875  -807779.219
392228.969  -817408.844
406526.031  -845744.719
406121.062  -756212.125
450013.656  -738772.156
442494.281  -736546.219
487530.344  -698603.000
536573.750  -695449.719
496804.125  -654898.562
534391.906  -586495.844
548166.281  -625919.812
601672.781  -579114.344
607642.156  -548502.406
618262.969  -530491.500
594342.344  -499571.344
646160.406  -476479.375
656236.500  -462955.031
689377.719  -404085.469
688018.031  -391399.125
667251.438  -381309.062
712000.406  -339313.750
706876.656  -324446.156
687599.469  -278831.938
685424.250  -248257.750
729062.844  -199330.938
705030.906  -209148.375
721613.031  -165813.812
708857.250  -124026.719
722603.406  -126437.656
704191.250  -103266.562
715618.562  -82746.375
713193.875  -57640.438
739752.938  801.031
687160.719  2421.125
709068.406  32608.531
735394.875  38161.375
713605.594  35971.531
694401.781  95011.094
696398.719  143899.094
657470.719  134864.250
663061.375  165010.188
672995.656  187234.469
632870.656  192551.125
655339.156  231568.000
604774.719  269826.062
605809.406  261290.219
605782.531  281469.094
590751.344  327681.812
614736.875  315135.438
595274.031  325810.844
552017.281  346562.562
546924.938  372008.062
531286.594  397643.438
481420.594  436144.500
492117.062  428874.656
483128.031  461506.000
476839.594  443048.406
426818.312  491597.750
452206.500  483712.281
394063.875  496232.625
363221.656  550763.188
355217.156  538152.594
330641.156  523435.906
315767.406  537787.312
274116.531  545445.312
300122.094  550795.000
251486.000  580914.750
263236.844  533529.844
212880.688  573127.188
196467.000  597107.562
184652.562  624191.969
171124.531  609225.281
130902.781  592182.688
101674.031  596634.906
137907.062  618249.469
100768.000  620975.812
86319.250  615337.156
53980.625  601426.000
-10876.531  612919.594
-57.938  605943.906
-60122.062  594436.438
-61535.781  586538.156
-73761.531  612251.688
-75166.312  594917.969
-100046.000  570995.656
-99420.781  610680.125
-120153.000  587026.125
-174766.844  555695.625
-201451.875  552602.250
-213478.531  534334.125
-217995.469  522411.469
-290281.812  515005.219
-239421.312  513555.125
-297573.969  497197.531
-268843.625  501187.844
-299330.688  476796.500
-311599.375  455831.719
-347496.562  448139.062
-371312.844  468973.719
-360208.438  393506.938
-410490.938  404936.844
-405640.031  403980.531
-419024.219  387773.812
-405129.844  352405.000
-425156.781  370141.000
-471708.781  302721.250
-452822.688  307589.844
-463907.500  304866.688
-465871.062  291370.312
-475153.312  267305.656
-486630.000  231448.406
-492169.750  225472.500
-499310.000  217735.719
-533321.188  164750.906
-524840.312  201493.750
-504595.344  166001.094
-501369.250  133572.688
-517271.250  111540.344
-517449.844  97682.406
-511262.281  75823.375
-554299.875  59341.531
-534626.500  86930.812
-527446.969  40310.812
-534666.625  -22850.156
-503443.375  -23601.688
-527177.312  -20386.469
-533749.656  -104920.719
-505952.406  -96116.688
-533645.000  -109516.438
-533681.438  -90123.469
-474892.562  -102543.969
-465836.250  -158602.938
-488567.594  -142333.875
-478217.500  -168727.719
-460791.156  -174368.156
-484700.250  -177879.812
-460718.688  -233504.688
-469020.875  -264815.469
-441007.812  -269972.969
-445087.000  -293419.312
-400290.125  -309697.719
-377247.125  -320219.656
-370864.219  -326801.750
-371317.000  -316800.969
-410211.469  -374009.656
-343501.250  -324725.969
-314195.250  -349714.719
-324046.625  -394936.625
-301914.250  -359218.875
-279624.250  -402869.750
-261265.625  -409532.000
-272653.219  -407963.438
-234036.875  -392486.969
-226651.688  -437855.281
-209984.844  -465324.594
-209843.969  -454528.750
-192665.219  -429088.500
-139184.406  -456712.156
-188556.188  -435554.594
-131212.062  -438859.750
-98090.688  -473099.625
-102676.906  -474291.688
-80266.406  -422631.938
-67149.156  -455578.375
-15860.625  -446180.812
-22408.531  -472375.938
-3470.156  -459417.719
16197.844  -452940.812
6464.938  -457354.625
38177.688  -448187.625
49191.281  -415606.625
86220.094  -453447.781
77774.844  -447156.469
111312.250  -454878.219
94783.688  -424169.875
134284.000  -452406.250
162990.688  -429191.000
144986.625  -408669.875
192724.938  -424705.031
194620.219  -416123.125
222365.969  -421667.188
201330.125  -392230.875
219560.938  -376875.000
242178.250  -383612.781
245547.219  -351157.562
246456.594  -358255.781
265810.938  -361749.250
291841.500  -314711.375
316200.125  -323792.500
303024.781  -309977.312
319489.156  -288531.438
320064.750  -264419.531
356026.344  -301924.500
360437.625  -268499.375
350264.438  -236233.594
377774.062  -211873.000
400312.719  -215539.000
395725.656  -189753.312
384449.125  -204984.312
369381.219  -164426.438
364695.250  -175252.875
402277.438  -157483.906
426403.531  -153584.375
423625.594  -110468.875
409226.531  -93029.531
438031.125  -87631.281
423505.750  -91599.812
430374.875  -53790.812
467112.062  -40720.156
429667.562  -29245.719
422813.000  449.500
423790.531  10446.312
430796.781  42334.062
426147.500  34662.094
442906.500  56354.812
412778.844  58753.844
399587.031  100169.469
397990.719  110380.625
407451.156  107102.312
407911.438  120444.000
363137.344  143281.438
372691.594  154021.969
355183.938  182156.969
383849.781  149808.844
348148.781  209993.594
400726.531  214707.281
369810.562  189917.031
331004.594  237001.344
341082.781  243594.125
291852.812  267925.375
341881.406  272875.594
322957.188  258854.594
253902.969  262308.906
274107.938  298968.188
252061.438  316101.656
255909.938  289119.438
248106.844  341480.344
228699.156  337728.844
229620.375  322348.531
185141.094  344191.594
202011.000  352911.688
192917.281  360467.719
183450.781  370202.750
152359.531  356251.500
132068.281  350478.656
148143.562  358798.750
104454.156  381126.000
114091.219  423525.812
83284.375  395968.188
77719.312  375123.781
39964.156  407834.750
55571.844  391487.875
17613.875  383472.812
29657.000  355712.438
-15882.594  393234.344
-179.938  392719.906
-15969.031  372010.469
-48365.844  389746.875
-80027.031  381116.469
-70925.344  372417.594
-49603.344  367301.062
-99801.344  348334.219
-119801.188  363541.031
-140208.719  327729.219
-110966.031  369184.312
-142295.125  344379.594
-159942.250  324032.406
-179477.562  313462.938
-163858.781  331057.594
-177079.062  316261.844
-192167.812  315121.500
-226172.375  285284.062
-219585.625  297336.312
-219843.625  303749.562
-227599.188  245135.375
-260070.188  272576.906
-281214.156  280022.281
-274516.312  252350.781
-284247.438  206519.125
-286335.562  229109.750
-275273.500  225610.562
-304819.031  225813.688
-293869.469  193568.344
-343871.938  215653.000
-322097.125  168027.906
-321663.062  150819.812
-329200.312  134078.938
-340845.094  128443.562
-307085.281  124910.969
-341221.219  75883.531
-326415.844  123227.906
-363979.031  85580.469
-320164.344  82742.719
-331982.219  100451.688
-330479.125  63260.031
-367979.438  18897.875
-320590.844  27685.875
-333386.125  976.969
-336467.094  20137.531
-338520.344  -8078.094
-352469.188  4583.656
-354930.438  -50937.688
-334179.906  -22039.125
-312333.500  -21501.281
-341205.719  -73206.062
-328267.219  -88474.438
-319683.031  -90484.156
-325132.625  -71590.062
-353920.156  -85429.969
-323141.812  -120071.000
-309468.344  -111255.625
-313472.312  -102855.688
-262506.250  -108699.094
-293691.250  -177088.719
-260629.094  -165206.969
-272316.125  -133485.500
-249437.469  -166659.688
-242654.469  -181713.469
-282062.750  -189476.062
-215247.125  -181559.500
-252831.625  -213003.031
-212584.156  -193249.156
-221991.312  -211914.094
-218161.125  -193544.562
-209056.312  -204303.219
-182892.125  -243554.656
-171414.469  -204779.625
-166216.188  -242081.656
-143298.312  -215139.875
-152064.844  -224614.031
-144669.188  -234745.469
-130793.031  -271899.188
-118986.719  -237190.594
-94533.531  -242569.219
-102357.375  -253186.969
-98234.375  -237392.312
-73238.156  -261411.844
-67459.000  -226996.812
-77047.312  -238863.000
-68330.156  -221750.562
-41707.562  -254581.312
-48142.031  -255494.312
-35859.875  -249507.031
-18572.406  -257521.438
-8762.312  -221234.312
31663.250  -232907.812
22114.188  -273759.875
