        $SEQPAR
        DWELLTIME= 0.0001220000000000
        HZPPPM= 0.0000000000000000, 0.0002025255087268
        SEQ= ( 64 )<ISIS_31P>
        $END
        $NMID
        ID= '( 60 )<NADH_20mM>'
        FMTDAT= '%6.3f'
        TRAMP= 0.1100000000000000
        $END
41601.875  -136562.750
31615.375  -410945.375
-189353.375  -353661.000
-249575.625  -209532.500
-374549.875  -49230.875
-321549.750  116898.375
-264546.375  191887.750
-150039.500  303745.750
19658.500  330003.500
191335.125  321875.875
289384.000  250078.500
319602.125  44364.375
387828.250  -52192.375
279641.625  -183023.500
138180.250  -339871.125
31803.500  -310294.625
-112450.125  -249232.625
-261580.750  -245814.875
-311414.875  -127570.250
-339978.125  54222.750
-313961.500  199687.750
-181002.875  254906.125
-9041.625  363833.250
158396.250  278551.125
260243.250  232323.500
267225.750  97656.000
299805.250  -110830.875
236321.625  -115987.125
141182.625  -239352.125
-5367.875  -291768.875
-158823.375  -238364.750
-227313.250  -211129.750
-283780.750  -58509.250
-271161.375  38851.625
-222639.875  153528.000
-168167.500  226627.250
-39551.125  271076.250
55011.750  296641.000
246219.125  158255.750
230131.625  78309.875
238522.375  -17114.125
200289.500  -134393.625
133079.000  -205542.000
49876.375  -265616.375
-94983.125  -208090.125
-233922.000  -201122.750
-208133.625  -101922.000
-243314.000  30094.125
-215963.500  113092.750
-175082.750  190942.875
-27612.000  251773.625
97481.250  220410.250
197900.875  194870.250
254690.125  148424.500
218742.125  30865.000
175285.000  -69272.000
99988.625  -183423.875
133209.375  -192884.875
-71117.500  -185034.250
-115639.500  -228839.625
-205933.625  -129256.500
-264013.125  -16397.500
-240356.375  135610.000
-145857.875  204627.375
-81776.250  182043.625
61796.250  214398.750
144183.500  179271.500
151329.750  106260.125
235522.875  54527.250
187143.125  -30054.125
80569.500  -150853.750
110231.750  -205017.000
-51738.250  -194203.500
-126113.125  -107833.875
-115131.625  -109034.250
-233458.875  -17256.250
-193142.750  -23677.125
-137303.875  203255.500
-21421.750  211887.375
16679.250  210676.750
102655.000  129287.500
148637.125  164424.750
190750.375  63763.000
186028.875  -85072.125
158339.125  -114499.000
79082.875  -163934.375
-32079.375  -185742.875
-109157.250  -173970.375
-190862.125  -150690.625
-167715.125  496.125
-236832.250  40610.125
-174619.250  189910.000
-34470.625  177579.750
23191.125  244276.250
111193.500  169647.875
165264.000  132525.750
222524.875  26426.250
160748.875  -62493.500
121671.750  -165232.000
60247.125  -183938.500
-17253.375  -216422.000
-59652.250  -180930.000
-182863.250  -108245.250
-147810.625  -28753.875
-150294.375  46501.625
-166691.375  93214.875
-12953.250  194356.875
63728.500  201295.375
155811.125  199736.000
160743.125  148021.750
208877.125  80996.000
161550.875  -78562.375
126310.250  -153499.375
68964.250  -154989.375
-3604.250  -174406.000
-79483.125  -186048.875
-120395.375  -84425.875
-144712.500  -30086.875
-134867.750  103264.875
-100884.875  124894.375
-81393.500  194188.625
36105.875  266295.500
71288.375  152732.000
167563.875  88458.375
186086.250  -26060.500
173618.750  -23735.500
132032.000  -98127.875
79809.625  -160157.375
24849.750  -190713.875
-48141.750  -161314.125
-124122.375  -128997.625
-199856.250  25603.500
-218087.875  28912.375
-139537.500  102551.750
-61561.000  182008.000
11331.625  184976.000
60802.625  207637.125
115645.500  81842.500
162621.125  81023.625
121310.125  -84633.750
176580.125  -173861.000
76384.250  -135140.000
15649.000  -204771.250
-69423.375  -147313.125
-119196.000  -163030.250
-168318.750  -94518.000
-139925.000  60120.000
-107715.250  -16786.875
-75178.125  158596.250
34944.750  215044.750
56194.375  196369.875
131143.500  110999.625
174879.875  53515.750
204864.750  -4236.875
207742.750  -136023.750
114369.250  -178451.125
84745.625  -122302.000
-37640.500  -220579.500
-128144.375  -154910.500
-199121.750  -89610.375
-132629.750  7967.500
-135059.125  111985.375
-71493.125  185295.375
-61746.500  149149.500
14427.625  152593.500
172183.875  93647.250
177742.500  90758.625
146283.500  10903.500
179731.500  -95809.750
82396.500  -140291.250
47831.000  -149664.000
-63345.250  -199918.250
-111164.750  -94348.875
-185702.875  -72581.750
-187138.625  -18669.125
-156238.125  44867.750
-44918.125  135108.000
-13549.000  187157.625
-26027.500  170567.750
111233.625  156015.250
128872.750  68564.250
91815.750  -45461.625
190793.500  -88398.875
121134.000  -102009.375
26429.750  -168945.250
-76546.500  -181011.125
-53660.750  -134616.500
-73095.375  -151942.500
-144073.000  -11611.125
-146280.250  78103.750
-179295.000  116639.375
-13435.625  162449.125
17642.000  157228.375
121284.375  127602.250
127663.375  44698.750
137407.375  29640.375
137751.000  -27853.375
132601.000  -91205.375
38730.625  -137270.125
-49704.625  -150221.125
-70808.250  -172962.375
-211215.875  -67303.875
-217809.125  -29440.625
-172254.750  14139.125
-108575.000  86514.500
-83875.125  93851.000
-47377.125  148123.125
84005.750  192891.250
166085.375  65412.375
176670.000  -56249.375
201556.125  -45499.250
103854.625  -112833.750
17213.625  -99958.250
-25533.500  -102364.500
-67204.250  -129647.125
-163043.500  -74902.750
-188444.375  -73904.000
-174493.125  66464.000
-134544.500  78939.250
-24712.875  73616.000
34354.750  111879.875
66886.125  139891.375
95313.625  125353.125
158969.250  28854.625
122932.500  -28437.125
114770.875  -122823.375
10183.875  -160406.750
-6286.625  -104098.500
-107611.750  -104409.625
-105260.375  -57799.250
-205789.625  -20142.625
-182473.375  9157.125
-160008.000  81125.625
-123587.375  130408.625
3931.750  174905.500
69864.375  161871.750
95594.125  84418.000
165630.750  53785.625
170512.625  -70878.125
159740.875  -128968.250
41731.000  -109162.500
23974.125  -144836.125
-99687.500  -81442.375
-150728.750  -89146.250
-133017.500  -15866.500
-174948.000  73736.500
-182193.375  85780.875
-87835.875  157237.750
20500.875  83066.625
109771.250  153637.125
137260.875  70118.875
151789.250  29447.750
112591.875  -75495.500
116819.875  -84140.250
131419.625  -114385.625
-1975.625  -149623.375
-113941.875  -180648.125
-57179.500  -38810.500
-214315.500  -71734.000
-172004.250  38196.750
-83418.000  92207.750
-28889.750  139464.750
-39705.125  144812.500
83118.375  133186.375
118592.375  106678.000
154788.250  112210.750
139027.750  33144.125
161081.250  -33150.250
45759.875  -134547.500
-2897.625  -191815.625
-18786.250  -139886.875
-111517.125  -84741.375
-157773.000  -100947.500
-189897.000  -28712.250
-107584.000  74735.375
-91651.000  157044.125
-19026.125  213716.375
29671.125  121179.000
117363.875  41073.250
157546.875  66496.250
173289.250  569.125
169288.625  -29051.375
103421.125  -123335.625
1745.750  -140726.250
-4456.375  -102504.750
-96642.125  -110678.125
-147198.875  -75443.875
-147814.375  2859.000
-115395.875  34833.000
-107998.875  145950.625
-23253.125  116181.250
50374.500  135215.750
56861.125  120466.625
210397.000  82581.875
110708.625  34536.875
140670.000  -32270.500
96323.250  -144355.625
57403.625  -131172.250
-90789.000  -134529.375
-70573.875  -152491.875
-118043.875  -13678.750
-156805.375  -9536.375
-197315.250  69494.375
-105735.875  131870.375
-28051.250  158284.250
-13646.250  162805.375
75617.500  104822.250
115624.375  61890.500
201091.000  -22852.375
138224.250  -106710.750
64642.000  -132198.500
62992.750  -101847.750
5904.250  -90361.625
-84888.000  -124603.250
-131864.000  -138601.875
-170103.625  40660.875
-118312.875  51780.750
-94858.375  37813.500
30410.375  137112.625
-12706.000  147616.250
73458.375  118161.625
130147.375  56342.500
130352.000  15990.000
118752.000  -6141.250
124751.000  -159666.125
18625.375  -126320.625
-28031.625  -139734.000
-24597.250  -184496.625
-107988.125  -62167.000
-123796.500  -35126.125
-124244.625  12122.625
-126414.250  76977.500
-1200.375  91976.375
21881.250  120190.750
28135.375  141715.375
140782.000  142597.750
181785.750  49793.250
120063.250  -36121.750
82327.750  -105781.000
127669.625  -132058.500
18739.375  -57073.625
-27649.250  -109086.625
-165951.375  -58563.750
-143319.875  10638.875
-86712.250  26481.625
-97139.500  144150.875
-75490.125  89544.625
80509.375  92095.250
74109.625  171553.375
32731.500  128547.125
157455.750  59388.625
127050.500  -69254.750
165600.500  -52022.875
48832.750  -159041.000
7831.000  -142974.375
-97056.625  -141999.375
-79739.125  -15624.125
-98302.875  1130.500
-83908.250  58200.375
-61023.500  66987.250
-35445.875  121480.125
20805.750  95776.875
117128.375  104314.750
57491.750  117523.625
88723.250  -40207.875
146347.750  41084.125
102321.875  -54769.875
26240.125  -119106.125
9987.125  -71693.875
-30746.750  -173169.875
-92366.750  -105367.875
-89204.875  23413.500
-96828.750  130653.375
-43326.875  137261.250
-20327.500  122065.875
47966.375  108144.875
99650.125  79757.625
50866.625  89143.000
122418.500  23498.750
135311.250  -30433.875
102311.000  -22031.500
13045.750  -108772.625
10561.125  -160456.875
15597.625  -150335.500
-105389.000  -92206.750
-165549.875  -87526.625
-117301.125  -40342.625
-89387.750  37939.000
-23094.875  120688.375
27657.750  113794.875
55741.750  60179.625
74325.250  87050.375
91649.375  82422.375
117363.000  -25325.625
91354.875  -75696.250
45605.250  -109977.375
-5944.750  -81439.250
1624.250  -77797.250
-54890.250  -28107.000
-62723.500  27993.750
-86569.625  30138.875
-96562.750  -10840.750
9235.250  31751.625
-34257.750  53407.875
115344.000  141307.625
51957.500  82893.375
92648.500  41066.250
125410.375  -42840.750
76981.625  -79133.750
76956.750  -126290.750
-9826.375  -32348.375
39377.375  -118268.500
-99324.625  -81546.375
-129625.500  -75645.000
-128168.375  51334.875
13010.875  19651.625
-37291.625  106881.000
-26123.750  69111.125
19120.125  130433.875
68532.625  15539.000
127415.875  34913.500
94569.875  13665.625
