        $SEQPAR
        ECHOTIME= 0.1300000000000000
        DWELLTIME= 0.0001220000000000
        HZPPPM= 0.0000000000000000, 0.0002025255087268
        SEQ= ( 64 )<Singlepulse_31P>
        $END
        $NMID
        ID= '( 60 )<NADH_20mM>'
        FMTDAT= '%6.3f'
        TRAMP= 0.1100000000000000
        $END
-623751.219  -101425.250
-1924409.156  -234674.281
-1832956.031  -342994.562
-1800200.656  -481989.156
-1683302.156  -434119.125
-1821328.906  -521193.250
-1691266.125  -688288.125
-1682585.812  -647560.188
-1624690.031  -692442.156
-1600708.656  -849824.000
-1524825.031  -866902.750
-1546354.844  -929266.344
-1479545.094  -1040334.062
-1408903.219  -1059998.125
-1365701.562  -1102049.688
-1345953.125  -1131387.281
-1258417.375  -1232597.406
-1174774.469  -1221768.781
-1137941.031  -1240582.250
-1084714.500  -1308538.062
-1035806.531  -1352227.344
-977865.812  -1370672.719
-857081.312  -1388195.375
-869908.938  -1442812.906
-755778.219  -1482993.938
-667717.500  -1472242.844
-594112.250  -1464624.406
-564194.688  -1491538.156
-509459.031  -1523795.969
-426214.656  -1512501.156
-317708.938  -1506779.281
-271205.906  -1502303.281
-213829.125  -1497611.000
-136849.625  -1506820.094
-68648.844  -1517779.062
-30473.750  -1495935.844
45979.344  -1473206.812
106386.719  -1480406.844
175182.312  -1452146.656
219417.281  -1427823.094
283479.156  -1387305.875
329709.281  -1387244.094
406963.438  -1324137.062
412558.125  -1316067.094
510203.812  -1256880.562
574989.375  -1234498.594
613442.594  -1196022.469
677898.219  -1163004.375
734719.406  -1110929.281
742813.750  -1049912.031
796185.438  -1013565.000
843027.844  -976471.938
890092.250  -916910.344
914280.031  -891636.844
944653.750  -826078.125
935719.469  -798763.781
964660.125  -725217.562
1010836.406  -684302.719
999326.219  -649418.000
1066231.875  -584457.938
1041726.750  -564569.188
1079967.562  -448878.062
1075545.281  -403840.062
1077882.094  -340640.781
1097955.219  -312010.594
1132030.062  -266181.656
1117987.719  -199840.906
1139666.375  -149897.344
1114278.000  -72865.312
1129459.031  -45157.188
1094514.531  13851.656
1111949.312  79015.594
1066574.812  109826.469
1083878.125  171306.188
1052288.406  185778.469
1035180.000  255722.031
996124.219  290010.469
951383.406  323252.469
949079.594  374749.312
935707.031  387016.000
930136.969  424750.375
889231.719  502903.062
863389.344  541064.281
821076.750  548277.750
790261.469  600902.406
764151.531  625294.625
720535.812  662967.312
707077.406  721128.375
685942.594  713814.000
614911.938  734613.312
582461.938  748471.031
579757.812  771124.625
527186.469  806874.062
501127.969  843640.031
436474.062  819285.656
421860.312  864170.000
380159.125  865282.062
332393.594  898451.094
293371.750  862331.625
219236.938  934022.719
211561.188  921579.656
133009.188  939134.750
130335.750  950688.188
84469.469  923460.562
16233.500  922160.500
1684.562  890157.469
-48891.469  901994.906
-57062.219  910310.812
-115843.406  873776.812
-165933.438  891437.062
-209331.719  883372.969
-246328.781  864637.344
-234696.750  849841.656
-302129.688  802566.562
-299511.344  838116.188
-369891.625  763335.625
-403603.938  763559.469
-464711.062  769788.812
-444679.125  734130.469
-497145.531  721632.625
-537918.344  725543.969
-506082.344  687146.969
-574136.000  648037.531
-595485.625  605122.344
-606979.312  570991.875
-669687.219  523970.312
-655709.250  525294.906
-689562.719  505893.062
-708670.000  466484.875
-702465.562  432882.594
-717967.906  390702.625
-721651.719  351021.812
-791366.750  320328.281
-777991.750  311121.688
-768302.500  249307.719
-784902.875  217660.531
-821418.844  202721.375
-812287.438  144847.625
-838057.094  108675.844
-846701.406  62167.406
-823717.469  46813.312
-807844.500  2728.500
-824052.500  -28373.656
-814087.531  -53433.469
-787313.125  -112305.094
-803905.688  -140088.438
-780638.281  -177365.750
-780662.719  -212338.406
-743989.344  -230309.531
-744720.750  -278866.125
-725343.531  -316851.875
-700951.125  -328655.562
-714945.500  -351806.969
-664255.438  -394337.719
-654845.500  -403670.812
-611753.219  -444737.344
-647555.531  -474232.062
-578686.375  -495062.531
-581814.438  -547630.125
-545223.250  -557891.750
-494280.344  -571443.938
-446888.094  -629709.812
-463952.125  -634479.438
-441419.188  -633009.125
-393366.938  -648693.281
-345832.688  -695996.125
-318659.156  -684852.188
-297684.375  -694001.688
-264015.625  -703612.812
-232873.812  -711369.844
-171786.438  -741156.000
-173159.594  -736649.000
-103893.188  -775027.844
-87766.688  -738293.250
-67933.688  -731274.594
-22373.062  -748617.938
-1317.531  -743601.781
56949.594  -740657.625
105712.719  -707918.250
135692.125  -733766.031
138470.781  -723605.406
158185.438  -729432.094
232057.031  -722060.062
247485.500  -663487.344
271759.812  -671727.500
319715.406  -678701.125
329703.219  -660270.219
357836.906  -611239.062
370457.094  -617415.344
421700.344  -573564.188
445057.344  -547259.750
480319.969  -565473.438
470058.031  -513124.125
499999.812  -499583.812
530447.125  -495394.688
546406.188  -417220.500
569579.000  -441011.875
564254.781  -400315.531
606175.062  -367886.938
592591.344  -321754.375
646734.844  -317609.000
631914.406  -261827.781
662700.562  -231640.781
667684.062  -204994.125
621906.469  -183889.031
649088.531  -160292.688
689727.969  -137629.719
649246.625  -99802.562
679818.281  -66084.906
698121.375  -34414.719
670438.281  -23169.906
693335.125  18557.688
682399.594  81353.625
642849.062  68946.375
619523.969  137773.219
636506.719  166942.312
624878.969  161088.156
629469.750  184169.438
594508.750  239367.750
613001.031  275249.062
612504.062  322217.625
584117.000  298849.625
578400.344  321851.562
540058.969  354743.688
514467.406  379353.656
509030.938  405623.250
499757.625  432251.938
457038.406  431850.000
458179.656  469969.094
408376.156  455827.750
397760.562  512214.500
368063.156  516332.875
342469.156  543160.188
331662.156  565078.812
274339.562  560999.281
232868.125  562296.125
211464.375  600530.469
227871.156  573864.031
187935.344  606980.250
172438.469  621473.844
163572.688  586730.469
112254.344  619662.594
69394.156  657706.594
20714.969  611279.750
33486.938  617557.656
-10762.312  629387.094
-34816.000  629193.531
-94955.500  625454.781
-88044.344  602338.438
-103958.875  628519.125
-141919.500  593378.812
-151790.250  590519.344
-208982.125  594374.125
-226939.500  543487.750
-274814.000  557324.219
-289580.594  558151.219
-282719.062  509743.469
-312793.281  532537.719
-352000.750  499955.594
-357073.312  478724.656
-376187.625  463518.938
-393647.250  424810.688
-449567.781  418142.688
-476456.031  404815.906
-474924.375  372799.406
-495034.250  354829.312
-481748.656  348263.188
-502365.719  332313.469
-513704.938  264188.719
-538527.844  244117.906
-555317.781  247910.562
-542896.719  236922.688
-580869.812  169524.125
-576772.844  152057.312
-568808.188  128642.875
-571188.094  120825.938
-568542.812  97504.094
-613552.969  54882.312
-587506.156  53063.719
-588433.656  23297.562
-571413.875  -20230.938
-577699.688  -24289.531
-561861.875  -63751.156
-580411.562  -103074.531
-546541.531  -119142.938
-582797.406  -137400.500
-531503.938  -180982.031
-555886.781  -205958.312
-544264.031  -232598.000
-488760.031  -277320.312
-546708.250  -273196.469
-481512.281  -293202.250
-497720.594  -323990.219
-464642.125  -324040.688
-433284.031  -337564.125
-425040.281  -383786.094
-442568.656  -378911.969
-399485.469  -429850.875
-379023.406  -444144.656
-351840.844  -451166.562
-329665.906  -479205.344
-289850.812  -504524.219
-285338.906  -496383.969
-238908.625  -502826.750
-215052.719  -501366.750
-222095.500  -515879.406
-207706.531  -539532.906
-166268.969  -495994.375
-165560.594  -537188.500
-123240.844  -549290.594
-114031.938  -534616.875
-60650.062  -539303.781
-43709.625  -532213.844
-4140.969  -543443.688
11235.656  -527019.938
20802.219  -546425.781
43225.969  -521999.656
72638.812  -532446.781
120973.594  -510735.062
119827.375  -525976.469
167603.062  -522366.312
175732.812  -517811.719
238594.219  -487852.594
221247.188  -503447.594
262640.969  -462953.812
276590.375  -423731.250
312442.688  -463911.438
329784.406  -425324.500
334915.750  -437050.250
352247.031  -411101.594
355412.000  -383961.781
397398.438  -396250.812
427652.906  -354172.000
406273.156  -344871.469
420979.062  -310955.531
434086.188  -327187.000
421869.938  -272959.125
437387.812  -250108.312
443181.438  -218495.719
482610.219  -232583.719
507041.812  -203393.125
480600.531  -175340.719
490750.500  -138077.094
489860.781  -122475.844
484485.500  -90418.469
498553.500  -63756.938
488322.219  -49769.656
497186.719  -37092.000
506361.500  -8317.656
505835.531  35845.750
482124.531  6735.031
474780.531  69596.250
492777.156  43630.188
489149.344  115401.750
538300.594  124379.688
460219.531  104044.500
487768.594  156173.750
452885.562  137187.906
449259.531  169227.812
442117.344  202490.188
428817.281  222777.219
410448.781  264111.188
376706.125  295165.344
390620.188  260273.531
347323.281  306405.656
383217.844  316975.781
339816.938  328877.156
341171.156  338299.062
278372.500  383926.156
309452.062  386251.312
302179.094  395627.625
250285.719  389781.312
245824.500  360612.406
186324.219  379738.031
218714.750  401765.875
187636.281  403356.719
159134.875  385216.562
176711.531  423261.594
152094.156  398799.344
70294.406  435847.625
98794.500  428499.094
74225.562  442104.938
43259.062  427069.281
65110.875  424280.250
-8475.625  405606.469
15541.125  426181.312
-9079.938  370155.344
-29322.156  387339.688
-60364.906  396969.312
-66276.875  401312.281
-82820.375  374231.344
-94952.438  385902.250
-136908.656  382544.875
-117597.500  361899.094
-146831.250  357274.906
-161578.500  357082.906
-183261.906  326343.719
-178550.594  333203.438
-221261.062  290022.875
-219946.531  323411.344
-229707.406  289562.656
-223385.594  290770.594
-240148.250  269079.281
