        $SEQPAR
        ECHOTIME= 0.1300000000000000
        DWELLTIME= 0.0001220000000000
        HZPPPM= 0.0000000000000000, 0.0002025255087268
        SEQ= ( 64 )<Singlepulse_31P>
        $END
        $NMID
        ID= '( 60 )<NADH_20mM>'
        FMTDAT= '%6.3f'
        TRAMP= 0.1100000000000000
        $END
-500216.625  -156349.938
-1583199.250  -398953.031
-1476825.125  -462834.844
-1455678.719  -712636.594
-1282420.031  -641760.531
-1419900.375  -705717.250
-1282571.281  -837921.875
-1215114.156  -877757.312
-1164169.375  -914492.750
-1133400.094  -1051391.031
-1044107.375  -1087711.438
-1013473.500  -1123317.656
-940349.188  -1211094.062
-861015.781  -1280981.438
-746442.312  -1270923.156
-686726.938  -1318932.188
-620033.219  -1322721.938
-493717.688  -1349804.688
-468635.188  -1361077.844
-353444.625  -1409326.875
-274536.156  -1392677.406
-200865.969  -1404415.844
-80060.594  -1408279.062
-15165.562  -1380953.688
49859.812  -1395125.656
129265.438  -1365529.344
272098.875  -1333027.062
300207.188  -1311740.594
391922.594  -1282684.906
450775.938  -1256856.906
505842.906  -1233476.500
586107.219  -1205235.469
665101.562  -1149974.781
719037.281  -1087137.750
788129.156  -1009750.000
865670.250  -958603.562
878365.156  -910235.531
943677.844  -882501.031
945432.625  -769338.562
1001235.594  -692508.031
1011385.594  -663010.656
1029395.969  -569514.688
1077427.875  -513692.031
1111068.594  -435046.344
1117520.812  -358688.812
1146689.031  -258240.688
1132338.188  -224951.531
1133576.375  -154383.844
1126534.062  -55325.438
1139538.875  -1869.469
1066208.625  60785.438
1058017.438  109809.719
1074468.438  187341.719
1042495.281  264929.062
1010279.156  333446.406
980011.438  432206.656
962298.969  438299.469
923397.156  523328.812
880170.844  548673.781
831173.656  615800.625
804647.875  647914.719
709211.875  691390.188
659408.625  698200.844
618744.969  753316.250
566060.969  792349.781
525632.875  832470.031
429695.406  850065.906
428824.344  880735.562
348144.156  872158.906
308884.969  912959.594
249511.500  909252.906
187045.156  893820.188
124897.688  892679.656
56128.625  929159.250
16710.688  910799.312
-63581.875  926632.656
-118892.031  887745.500
-176431.688  891068.188
-223086.531  869107.188
-273105.531  808249.281
-321538.500  838964.312
-400618.375  803396.219
-397398.406  758352.781
-442847.719  713189.000
-523187.625  708000.188
-557577.812  658017.594
-572728.938  640167.344
-606247.500  586601.969
-620748.469  550080.562
-670521.156  524906.719
-694902.719  449061.281
-702089.719  402712.250
-750345.469  350002.781
-765794.969  325071.062
-758121.250  260896.500
-826871.250  239130.688
-804917.719  180169.969
-793706.844  92044.281
-782952.750  85528.781
-819795.500  46123.406
-803119.969  -20635.312
-787969.219  -98425.250
-774193.688  -117816.906
-787151.781  -146740.406
-764447.688  -217101.656
-764038.375  -289402.594
-712345.062  -305903.906
-720328.031  -322026.938
-686811.000  -401277.438
-645597.031  -412143.625
-632173.281  -456601.719
-598678.312  -492177.406
-569517.438  -540938.062
-492114.781  -569708.562
-477669.969  -577738.844
-437576.219  -595477.000
-432336.906  -659573.531
-374217.188  -664809.844
-307088.125  -686566.969
-307203.562  -705407.125
-233751.312  -714881.969
-191321.281  -723366.688
-150755.250  -729893.812
-122455.875  -759777.438
-70142.188  -741418.844
-16791.781  -739920.406
31135.594  -703200.562
109668.969  -724197.812
106991.656  -727552.906
180327.969  -715868.469
228405.656  -687568.250
241849.812  -668480.938
271280.688  -605075.281
327537.625  -623881.844
399823.438  -627655.344
396500.719  -592686.781
422214.906  -575083.438
457312.250  -528826.031
496337.875  -489304.156
511747.969  -466379.281
553665.531  -431293.469
565618.688  -408440.375
600059.781  -357560.906
564896.281  -311138.781
622388.594  -265145.938
664141.531  -243630.438
683898.719  -202601.656
652778.875  -172932.969
684950.969  -117320.062
693841.312  -77170.531
654819.156  -18386.000
661749.000  2187.469
677984.219  52553.469
700286.688  88746.062
692349.312  153617.562
675206.000  160141.000
626268.344  223640.688
654042.281  268078.875
606167.000  319816.281
586371.219  326040.094
575385.094  362394.531
544650.125  407677.406
478922.000  407894.719
466715.688  467788.562
417359.188  493024.312
414966.156  517590.906
392656.625  529172.031
361989.812  565583.906
279791.781  571333.094
283263.688  594413.844
192234.188  629208.344
216000.375  635161.312
166675.844  636860.000
124335.281  640589.375
99268.562  652402.188
10743.750  650491.938
-1938.438  653878.156
-50850.750  654672.125
-78278.656  611224.656
-119753.562  603541.125
-165938.000  627072.719
-167527.156  609050.906
-218014.719  580464.562
-284084.281  545330.594
-312902.625  521992.906
-360182.125  525034.125
-354338.188  495824.531
-425064.031  460682.500
-447460.281  469514.219
-451809.562  416758.094
-467117.062  421284.438
-531594.625  351492.719
-519227.688  335962.375
-551615.750  284081.906
-529684.031  255467.438
-574935.562  193030.875
-575612.844  188366.719
-614395.375  163125.812
-576286.125  131908.625
-578429.062  60738.875
-577009.438  43121.469
-610141.531  1884.531
-624695.094  -43109.125
-602346.781  -78523.000
-614658.438  -101188.219
-576186.750  -156999.312
-538617.406  -168015.375
-567497.531  -205331.938
-527085.062  -250683.406
-522707.188  -271057.219
-482916.125  -303319.094
-466002.438  -338806.969
-437349.906  -385112.688
-429792.562  -413631.625
-359249.281  -432313.281
-356872.438  -454961.969
-334918.188  -461397.688
-292697.469  -472769.312
-271472.188  -506528.250
-231257.406  -519579.531
-198008.531  -523746.000
-136985.188  -533005.906
-145650.688  -571083.719
-89249.750  -552466.281
-75582.156  -561627.469
-83148.125  -550137.156
4349.344  -554891.531
42373.344  -560879.062
85435.812  -553095.844
107403.094  -546249.344
127993.031  -538716.125
195976.375  -528453.156
199786.219  -511859.406
245952.781  -494256.656
265885.812  -494609.406
265640.000  -452694.406
321600.125  -423142.938
363822.438  -423854.469
355136.625  -394277.406
412223.562  -363615.438
413352.594  -363091.281
434247.188  -349426.719
477848.844  -255231.750
488159.188  -251680.375
486772.594  -221923.906
524133.188  -175913.688
541270.281  -169156.438
517299.781  -155050.250
487416.500  -113564.281
555892.281  -75913.844
523288.750  -24681.312
542085.688  25662.312
512424.031  33840.281
494317.594  48467.750
516170.594  105459.938
481128.062  121380.344
484542.062  185948.969
498923.000  205978.125
471069.688  216376.906
466532.969  259573.438
450145.594  246861.281
427681.250  289036.312
387241.406  336567.656
387437.500  342409.844
353303.062  368816.844
335523.250  424535.156
311694.562  397836.594
271525.688  438963.375
263724.875  463015.719
228237.031  452807.719
188086.750  460694.031
181168.250  499152.844
137202.438  511089.531
114008.594  496792.438
43288.062  510373.781
44414.250  538942.562
8584.750  515875.062
-18617.875  510870.812
-48455.656  531042.562
-82338.562  529781.812
-127394.250  478389.875
-159544.000  474184.250
-173933.969  469848.781
-217313.656  442997.781
-234938.594  471980.594
-259751.719  404790.188
-285505.531  415105.844
-335409.406  380254.500
-329140.625  388555.969
-382989.719  347407.500
-355164.406  322734.125
-386400.938  270815.562
-412656.938  236819.875
-432499.375  217701.125
-426716.625  199137.156
-474949.188  196821.750
-481838.094  156155.688
-483709.969  130192.344
-503886.562  99640.500
-475437.125  70996.906
-479543.562  26950.000
-469201.969  -8138.906
-445978.156  -42884.688
-479569.250  -54699.719
-456344.156  -70109.125
-474547.594  -103165.250
-469514.469  -163310.156
-441768.875  -208994.062
-458073.719  -207689.812
-393848.000  -200380.344
-406870.844  -251854.250
-383132.188  -260855.562
-407517.000  -303484.000
-358314.594  -332632.719
-330151.594  -336124.375
-297776.906  -346867.062
-245209.062  -388160.219
-246007.469  -395499.562
-229537.000  -429777.062
-238006.094  -418260.594
-184100.062  -403229.031
-174857.625  -440735.906
-98868.156  -472064.094
-96374.406  -438633.969
-38958.875  -457549.031
-41572.594  -461391.250
18071.406  -464112.125
24744.969  -454524.906
41965.531  -470433.406
70309.000  -446371.219
105663.531  -459705.062
152881.594  -439952.312
131253.562  -445709.219
178759.406  -442651.281
208665.438  -423666.000
197081.312  -384897.469
288175.781  -387666.438
272403.969  -350524.406
280320.344  -352230.312
340784.344  -298626.406
350138.688  -308037.312
390905.969  -284913.219
385006.906  -228806.750
391844.500  -264128.375
379322.875  -181316.469
365516.406  -147756.188
404835.062  -145783.094
426279.375  -135174.062
435509.188  -95842.062
448416.562  -68954.938
437757.594  -13326.688
416716.781  -23268.406
467012.281  54003.156
453629.562  -13316.031
431947.781  86376.062
424631.219  79330.750
413441.531  83921.938
396184.781  128896.656
379002.031  149013.938
384725.000  171063.906
392292.594  213610.688
335373.500  220185.531
335513.188  258771.594
349718.594  264393.219
297976.375  284102.625
293430.875  344373.188
283585.469  301941.188
230780.219  340281.844
220795.750  385583.688
214730.750  334251.625
158023.625  352802.438
143558.312  387016.812
159423.344  349857.750
106829.438  406108.000
48124.125  381656.312
61705.969  407918.312
72958.062  391378.031
9832.250  368019.375
-12938.344  392615.125
-34868.031  367063.281
-43326.875  356826.344
-85123.094  379468.250
-92132.406  378224.781
-118497.875  367456.156
-178230.781  354570.188
-137779.469  350100.000
-174836.250  323430.656
-200874.750  298443.719
-174352.844  327988.281
-225599.750  264578.156
-229348.625  225104.094
-240207.125  236653.000
-280209.750  220660.188
-296380.031  218023.062
-275398.125  195243.812
-311033.344  155087.281
-290350.312  157058.969
-302708.062  121242.188
-335957.750  80124.562
-282816.969  78208.938
-364318.125  36320.344
-312578.125  32647.031
-301139.125  3634.156
-286885.625  -9079.938
-313714.156  -32582.375
