        $SEQPAR
        DWELLTIME= 0.0001220000000000
        HZPPPM= 0.0000000000000000, 0.0002025255087268
        SEQ= ( 64 )<ISIS_31P>
        $END
        $NMID
        ID= '( 60 )<NADH_20mM>'
        FMTDAT= '%6.3f'
        TRAMP= 0.1100000000000000
        $END
90814.375  -173685.625
27379.250  -440599.625
-221928.875  -414500.750
-320754.750  -292513.500
-441973.250  -50857.625
-451873.625  114463.750
-362814.875  299818.750
-107763.750  429160.375
-7768.625  438508.250
204275.000  325615.125
352998.000  284568.875
425049.125  60267.125
417828.625  -154520.875
261500.000  -235124.750
153520.125  -383210.125
38619.875  -431826.500
-215706.875  -372194.250
-299113.750  -238166.125
-429650.125  -48386.625
-329578.625  83120.625
-239266.125  244547.250
-122927.750  364463.500
-10165.000  379938.125
187329.625  335152.375
300358.875  176810.625
368640.500  77067.500
371783.500  -100312.875
242505.625  -284253.250
146310.250  -348590.250
-1664.875  -371044.500
-132054.500  -315443.875
-285026.500  -181955.750
-357188.375  -5482.250
-316756.750  125755.875
-254226.875  209284.625
-143203.375  353578.000
3381.625  283571.500
189784.250  299985.875
271177.625  179344.000
341200.500  26286.375
322079.250  -84226.625
232382.500  -224151.250
151281.250  -369950.750
-18067.000  -328826.875
-205382.625  -257829.625
-278679.375  -138245.750
-308155.125  13080.250
-301615.750  76590.375
-159207.750  177772.625
-86508.250  284618.750
942.125  354771.500
154547.625  276722.750
277714.625  175251.250
310349.875  33852.375
301572.875  -22859.625
157920.875  -200830.500
93571.500  -274870.250
-37881.750  -285697.875
-135688.875  -259724.500
-226670.500  -231985.000
-287956.375  -21049.000
-312389.125  138836.250
-176943.375  167219.750
-58406.875  228090.000
19934.250  256154.375
104855.125  278411.250
202082.625  171083.375
222876.625  29745.500
249602.125  -120218.875
170229.250  -196037.625
124212.000  -259629.875
11356.250  -244620.125
-177839.750  -244753.625
-256342.250  -257061.875
-289353.500  -16966.125
-221611.875  -11428.750
-253832.250  248539.375
-105594.375  253840.750
3659.250  269062.000
81230.125  209011.750
235512.875  181023.875
212543.875  13864.500
230350.250  -63407.375
153487.625  -249156.125
116240.000  -225921.750
-33291.500  -223464.250
-98961.875  -205655.250
-224849.500  -126145.250
-254062.625  -74704.625
-235210.250  46660.375
-193699.875  165475.000
-112823.500  301283.625
-971.375  273149.125
194159.250  204256.625
168057.625  155322.875
263959.875  23947.625
261210.000  -134819.250
132125.125  -179991.375
44085.625  -212626.375
-8695.750  -233604.000
-115188.500  -176459.750
-208647.000  -88942.625
-246606.875  -30768.375
-258267.500  101952.625
-149204.500  194157.375
-102354.250  220943.625
18565.625  244920.125
164255.500  172003.750
236154.250  60747.125
201669.375  -45757.125
225351.750  -32484.875
137219.625  -127569.375
34243.250  -260024.875
-34920.375  -242315.375
-96040.750  -198551.250
-222111.500  -99180.500
-205543.625  -22989.375
-211836.625  63102.500
-169157.500  152631.375
-82938.250  155246.625
14772.000  269835.750
153541.125  222490.000
176215.000  34413.500
198528.250  35686.125
175731.625  -121379.375
98206.000  -158941.000
79291.750  -221098.375
-65355.125  -173732.625
-130141.000  -224373.750
-238580.875  -116924.500
-183218.875  -25358.000
-199697.625  74995.875
-135973.375  135420.500
-45549.625  196489.250
1652.375  176464.500
105959.250  159095.250
201663.750  100815.750
220651.375  -17419.625
164106.375  -75694.125
118262.000  -129633.375
10034.875  -236997.750
-54643.875  -198346.625
-129829.000  -189138.250
-175925.875  -103292.000
-234031.750  -24756.500
-224942.750  85248.125
-159735.000  174905.125
4923.375  264042.625
-10539.875  189601.750
90586.375  176117.125
166961.875  109898.875
211060.625  20323.375
199179.000  -74555.000
71155.000  -115381.875
24759.625  -176472.125
2240.875  -191645.500
-94885.375  -201523.875
-215835.500  -127653.500
-181732.375  -1752.375
-221923.750  131013.000
-72022.250  186235.250
-41498.250  186887.375
-22768.750  223612.375
75108.500  175320.375
174662.125  79197.500
292945.625  -12199.250
227474.000  -129208.250
181403.500  -175403.000
49138.375  -199536.500
-1408.500  -200586.875
-127009.375  -186751.375
-132106.875  -55391.250
-224486.375  8147.750
-168501.875  53373.625
-152574.875  168699.000
-25966.125  159451.125
13918.000  224013.125
95696.125  146943.875
147741.125  102643.625
194350.000  45971.375
169133.125  -48751.000
124567.250  -138085.250
59952.625  -138533.750
-34959.750  -189839.750
-142166.625  -88627.875
-198261.375  -31388.625
-197891.500  1956.000
-232234.875  33469.625
-130184.500  130943.875
-48356.125  192020.000
14331.500  171328.500
144102.875  166750.500
174144.750  105050.000
190749.375  33556.625
164845.125  -83083.250
204768.125  -140169.250
54600.625  -194835.875
-62542.375  -186589.750
-81600.875  -178331.750
-163186.625  -116728.875
-138756.375  14958.750
-154583.875  68529.000
-140553.125  217672.750
-31087.000  120384.750
35478.250  187911.375
177183.000  153816.250
175968.000  116509.625
219417.375  -5504.750
177621.750  -116426.125
129091.625  -155587.250
89629.875  -175153.625
-10734.750  -217879.125
-132766.500  -183058.750
-183987.000  -139638.500
-195734.125  -20617.625
-209915.375  53579.875
-118400.750  90800.375
-73897.125  175250.875
15461.625  173107.000
111815.625  97132.125
184305.500  78444.250
215159.750  19460.625
189287.875  -45819.250
146171.000  -100042.500
63641.000  -252909.875
-13973.250  -176873.500
-49187.125  -155185.875
-205314.875  -114926.250
-176689.500  -60224.625
-128825.000  58989.250
-111994.000  155007.375
-55571.500  236899.875
-1293.875  187297.750
103078.250  160589.625
184402.125  -3451.125
144838.000  -32568.625
190668.375  -25004.375
154711.875  -164631.750
110276.000  -227764.000
-27228.375  -184220.375
-142554.375  -93500.750
-144644.750  -111747.375
-204542.875  -58983.000
-149427.000  16720.625
-76983.625  200220.875
-91992.250  140016.625
29737.000  175023.625
185120.750  44349.750
179599.375  125156.250
124430.375  40444.375
216409.750  -59608.875
127285.875  -151363.625
56309.625  -194289.625
-19566.125  -158206.250
-94954.000  -161990.000
-122987.375  -87850.000
-151143.500  -20883.250
-171379.750  100636.000
-83835.000  100774.625
44626.125  153858.625
-41138.500  169757.500
68436.750  161040.250
194279.625  80961.250
142856.375  -30500.375
199563.125  -124253.750
57988.250  -157847.500
75695.250  -163827.875
48790.125  -165826.750
-82188.250  -189920.625
-127071.375  -13317.625
-222684.250  24695.500
-129188.375  102513.500
-68915.375  138086.125
-31203.500  186450.250
32858.625  122791.875
81018.875  150840.500
190550.125  48058.000
151258.625  -23904.125
176504.625  -93514.125
121735.500  -162692.375
52667.750  -174614.875
-39558.375  -213283.750
-109050.375  -100264.875
-162486.375  -60530.375
-179442.000  25181.250
-126544.125  85081.375
-203557.000  128039.000
-17023.125  217131.875
13679.750  198873.000
82125.750  165357.125
139302.250  51414.750
227830.875  -5752.500
116802.250  -22920.250
97067.250  -160921.125
16729.375  -214138.125
22372.250  -177894.500
-60289.500  -83572.375
-166403.875  -22630.250
-207841.875  5729.625
-163805.000  85020.500
-127666.250  118372.250
-22242.750  121755.500
40303.500  201929.375
88847.750  95593.250
116107.500  135219.375
153668.375  33294.125
102209.500  -31050.125
116742.625  -161219.750
17317.375  -131638.250
-24550.625  -155790.875
-122777.125  -183594.875
-164954.750  -75809.250
-119677.375  -8053.000
-122349.500  115777.625
-105345.750  93931.875
6479.375  148270.000
21694.875  167829.250
145777.250  151893.125
181877.500  16287.000
192049.750  18677.625
166596.125  -72578.750
123856.750  -105278.750
52824.500  -127212.500
-41092.875  -171848.500
-117171.000  -100915.875
-150815.750  -86823.875
-250198.625  -15462.625
-146861.250  105948.250
-101475.750  103110.250
-50200.250  158785.125
69455.000  171203.750
105548.625  160033.000
155140.375  25107.000
179439.375  27752.875
177515.625  -5911.625
92104.750  -112381.125
19226.375  -117211.875
-81388.500  -219418.375
-107575.625  -89461.250
-90253.125  -53466.625
-188339.375  -55968.625
-176607.500  47175.125
-10425.250  100992.625
-20334.250  137665.875
90089.125  170631.250
104355.625  111984.875
171132.250  4893.125
192181.000  -14364.500
152476.125  -113411.750
37916.875  -112246.500
32252.625  -167449.875
-47034.750  -143153.375
-112194.250  -135061.125
-140537.375  -94610.250
-173106.125  32200.000
-203320.000  95835.125
-65186.875  67390.625
-26422.625  175495.750
18461.000  124173.250
98729.750  165926.000
164908.250  63837.750
131122.625  -34591.625
174790.125  -105603.625
80689.375  -149846.750
-32404.375  -148565.875
-28679.000  -95611.000
-96639.500  -74118.750
-130081.375  -71146.625
-133492.875  26149.250
-97714.750  35757.250
-78465.500  183644.625
-24358.750  153742.250
75404.750  179604.375
31113.500  81159.375
123075.750  94154.375
126806.125  -13659.625
122088.875  -92059.375
61115.000  -153055.500
60795.000  -135947.000
-61914.875  -150768.750
-103015.875  -109374.625
-114691.125  -98826.125
-132870.000  74212.500
-71209.250  104310.500
-53485.125  141085.875
-15618.500  179696.750
-3570.375  142312.750
68304.625  100739.875
124369.500  -4170.500
86120.250  -26760.625
92444.625  -86479.500
107345.000  -130865.000
-70630.125  -68504.000
-30680.000  -70023.375
-103063.375  -184829.000
-118841.750  -88731.875
-104483.875  47598.500
-103981.750  47777.500
-79216.000  68023.000
20565.875  115414.375
31388.250  96517.250
109557.250  92225.625
85433.000  84785.375
123855.625  -37919.125
94549.750  -102024.500
142490.500  -48197.875
-36857.000  -103984.000
-67774.375  -135972.875
-137217.875  -78809.500
-90855.125  -73794.125
-136642.625  4999.625
-102118.500  72347.000
-4655.875  88924.000
-22205.625  140193.625
35640.625  114168.500
53129.125  71621.500
67788.000  40203.000
91143.375  -19877.250
51140.000  -8009.750
