        $SEQPAR
        DWELLTIME= 0.0001220000000000
        HZPPPM= 0.0000000000000000, 0.0002025255087268
        SEQ= ( 64 )<ISIS_31P>
        $END
        $NMID
        ID= '( 60 )<NADH_20mM>'
        FMTDAT= '%6.3f'
        TRAMP= 0.1100000000000000
        $END
66983.250  -142628.625
-15850.125  -500059.000
-157062.250  -389315.500
-326595.250  -296628.875
-428867.875  -73215.000
-456826.625  137563.000
-317699.750  299612.750
-116870.750  456676.125
42378.000  426278.500
265116.500  328969.875
343202.500  174016.125
390527.500  62316.250
387878.875  -191508.750
286698.625  -325359.625
69160.375  -349140.750
-66390.125  -415397.250
-222621.500  -322786.500
-362565.125  -159031.000
-447469.625  -16936.125
-299476.500  154955.500
-262276.750  303001.875
-112108.000  453452.250
49076.875  425255.125
226036.250  284102.125
281118.625  204830.500
380410.750  26707.750
346001.500  -107083.750
303336.125  -341079.500
82102.000  -359200.000
-67373.250  -414156.125
-246307.875  -217871.750
-386120.500  -112128.750
-368756.250  83881.875
-348282.875  159394.750
-204145.375  261204.375
-22102.875  290411.250
124633.125  326432.625
252369.875  244606.000
315328.625  115476.375
291087.500  -33780.750
263725.125  -153953.250
185851.250  -302568.250
43667.875  -318604.750
-158014.375  -268469.875
-262931.875  -258337.875
-307561.625  -118197.250
-358100.750  35107.500
-284686.875  144695.000
-222389.000  306382.000
-74644.125  340935.750
110435.500  297844.000
190932.875  259987.125
254928.125  52499.625
341656.500  -62926.500
306520.125  -112959.375
132962.625  -240614.750
67767.375  -339276.750
-96169.750  -228007.000
-219984.750  -269174.375
-239550.000  -115695.250
-341897.750  16495.625
-260606.875  134453.625
-137441.250  180357.125
-4887.500  222044.625
73380.125  281935.250
226663.500  239333.500
290283.750  71953.625
285646.875  -48599.125
276964.125  -169114.375
156771.625  -291906.375
30791.500  -277327.000
-42857.000  -251813.250
-211050.375  -166431.500
-246876.625  -85540.250
-267008.125  -2530.125
-248187.250  102285.125
-135446.000  219133.500
6735.250  290367.125
44784.000  250047.625
176319.250  134789.000
238592.750  130346.750
247923.375  -7682.750
220856.125  -135046.250
143498.750  -224675.375
16661.500  -273529.250
-95479.875  -319254.750
-221553.125  -127202.500
-233522.750  -76588.250
-231452.000  48150.250
-142265.750  190587.250
-98243.625  227942.250
5074.375  298201.500
109920.125  219115.250
171742.625  132819.875
218015.250  75245.375
287028.000  -29115.875
191683.000  -112880.250
111058.375  -174045.625
35666.375  -245960.125
-167772.500  -230882.625
-148507.375  -148853.500
-242653.000  -35294.500
-190358.625  39550.250
-194964.500  121189.500
-11015.625  184196.250
-8836.000  256954.000
162962.625  252037.125
192743.125  101182.375
172700.375  27406.750
221135.750  -87519.875
175222.125  -185012.375
50383.000  -249185.000
-60511.250  -266883.875
-148138.000  -203340.125
-187880.250  -107916.500
-262530.000  91.250
-263647.375  120988.125
-191945.875  185186.875
-60048.375  199740.500
59292.125  248052.125
132524.125  148131.500
157186.375  162611.375
259893.750  67252.125
279230.625  -55559.000
112423.375  -203508.125
60391.125  -228913.500
-92348.875  -199152.625
-119547.250  -178284.000
-244976.750  -59325.000
-192976.125  61703.375
-221538.625  153601.000
-51431.250  141494.750
-107924.500  232168.500
43194.875  266907.000
96625.625  205250.625
211998.250  112851.750
191530.875  -30689.750
214663.375  -133369.250
121680.500  -163888.375
72528.750  -245958.125
-76847.000  -195961.625
-141404.875  -140745.125
-186368.750  -26638.250
-255472.625  33303.500
-223879.000  86397.125
-138590.250  139121.500
-34978.250  238750.750
34701.250  264729.375
159634.125  127302.500
291053.125  85359.000
153555.375  -48413.875
197636.875  -135922.250
175990.875  -188628.250
18870.250  -191218.375
-57034.750  -212423.875
-150985.250  -142658.125
-222016.500  7270.125
-234754.000  25524.625
-231072.375  111655.000
-127473.000  234451.375
5870.875  243035.250
74178.625  245411.375
176193.000  95113.500
185755.375  81552.125
190635.375  -32872.625
224674.500  -150332.125
100256.125  -122303.500
15713.125  -243037.000
-66957.375  -186874.000
-118841.750  -40537.375
-189686.875  -41815.625
-203731.000  43784.375
-144552.000  102454.250
-112256.375  180205.000
-16107.250  166312.125
99049.375  241334.000
135389.750  86815.250
128343.500  14419.125
235762.000  -18047.000
99183.625  -178692.875
136943.250  -135519.375
10882.625  -192353.625
-78671.125  -183384.000
-161714.000  -135503.625
-199787.875  -24870.500
-170821.125  30309.125
-160693.250  192457.125
-134101.375  104229.500
35224.125  168467.625
73797.625  182268.000
215009.750  98693.625
213416.500  47891.750
195835.250  -57572.375
165386.625  -113577.375
71234.250  -228702.625
-8820.375  -195939.750
-83971.625  -119520.250
-140159.375  -127182.000
-216551.000  -49135.375
-169199.500  83782.500
-208290.250  170042.250
-51438.375  129743.500
-5860.875  255933.000
122483.375  183763.750
173309.375  78284.125
224012.250  33283.500
217824.625  -106448.500
117926.500  -119350.625
76300.500  -149974.250
-46207.250  -210369.500
-111186.750  -132637.625
-143110.750  -220327.125
-254476.750  -54601.125
-202581.625  26230.625
-109573.000  213169.000
-2555.000  149505.875
67917.500  141281.250
169986.000  154899.125
173171.875  44429.875
190224.375  64897.625
181591.375  -59033.375
145544.375  -211067.875
62031.250  -156302.250
-10267.500  -180045.500
-118261.125  -164228.750
-117678.125  -95286.500
-163227.875  -9551.250
-160577.000  53130.125
-112146.125  127053.625
-71350.500  179771.000
54454.375  123440.500
111990.375  176323.750
195735.875  97016.750
152550.125  18157.875
202236.625  -110107.125
167547.500  -120397.625
56620.500  -149117.625
-31801.625  -198771.625
-127779.500  -83650.125
-118890.500  -99191.875
-137867.000  -31265.625
-201579.250  91510.125
-119750.000  99667.750
-91832.875  212057.750
78721.000  161323.000
129870.625  123267.375
247575.375  112948.000
156224.750  -1989.625
172442.375  -93973.625
148689.500  -188047.625
70075.875  -104442.250
-42488.000  -169151.250
-90932.625  -164276.375
-178974.500  -91583.250
-172980.625  50397.375
-170130.875  100399.375
-127066.000  127923.875
31864.250  241079.250
-3658.125  165148.750
130311.875  138064.500
195588.875  32602.250
125554.000  -31239.125
177677.375  -129673.250
123290.750  -129752.625
-43150.250  -224948.750
-28642.500  -198093.750
-130193.750  -147891.500
-188705.500  -12445.875
-166016.000  65800.000
-163019.000  124473.125
-111099.750  172500.250
20558.250  131870.750
62685.625  151080.500
142456.500  154407.125
239443.625  9715.875
135238.625  -43446.750
181464.000  -89990.375
129556.250  -141868.500
44204.375  -208736.375
-71722.250  -150884.750
-160439.750  -111444.250
-142941.750  -68873.375
-159562.125  48332.375
-192894.500  65363.250
-113027.000  234339.125
-12814.750  158104.375
69896.625  196108.250
131942.750  118756.875
186038.000  22606.125
229896.625  2139.125
81561.000  -89669.500
24243.625  -167114.500
37964.750  -147164.000
-84232.750  -159382.750
-112306.625  -154108.750
-126035.125  -37462.000
-146836.625  21517.625
-186567.000  7561.250
-152266.000  165975.250
17735.000  186000.500
70271.875  133447.750
179310.375  59224.750
208160.750  66098.250
197228.375  -63193.500
96698.125  -78617.875
81197.250  -176378.500
-42647.625  -127604.625
-169331.875  -164112.250
-195521.750  -62477.750
-173412.125  23563.375
-158926.250  99457.000
-164480.375  80241.750
-48966.375  191339.875
64094.375  171342.500
87731.375  137176.000
157795.500  151737.750
241672.000  28519.750
179163.875  -21682.250
94003.625  -151776.375
32992.750  -151952.375
-3227.750  -164266.875
-78370.125  -207789.000
-204078.000  -53057.625
-169748.125  23552.000
-203939.750  37006.500
-108759.250  111960.875
-68855.125  182279.625
26955.125  157498.750
70778.750  160178.875
141025.875  70435.000
170905.250  -25167.125
138666.125  -56687.750
94831.375  -121525.625
63439.000  -145925.625
4141.125  -262853.250
-127335.750  -93682.375
-181217.375  -59550.500
-192602.375  -9918.000
-165243.000  78263.250
-97790.750  123607.625
-29506.500  184172.000
19565.125  177938.500
82727.500  105905.625
158652.750  75520.375
233578.750  -45566.625
184822.625  -148805.000
71360.375  -165443.250
4748.625  -137052.250
-44477.250  -119425.750
-109733.750  -63481.500
-156753.375  -28058.000
-100107.250  13608.375
-127465.625  86136.125
-118912.625  92512.750
-32674.000  232989.625
51254.125  153889.625
184451.750  96717.875
137476.625  38945.750
130580.875  18596.875
210339.000  -113117.000
101141.625  -121876.375
-4084.125  -146559.375
-74585.625  -112818.125
-153386.750  -94496.500
-118082.000  -31824.750
-155453.125  56182.750
-143913.250  107159.125
-64371.000  135848.375
-9219.250  140836.750
58426.875  140678.625
116855.250  78195.375
127122.625  -18525.000
151177.375  -60558.125
77249.875  -89674.625
64828.500  -146753.250
18.750  -113474.000
-34608.875  -76549.500
-137861.250  -144499.000
-163686.375  -63232.250
-116901.000  34597.625
-135061.500  104610.625
17660.500  76136.625
-14022.250  207105.000
106572.875  157971.500
122473.500  65289.000
68015.250  -38835.750
172508.375  -3130.000
46353.750  -78619.500
41640.125  -169121.000
31583.250  -92786.125
-105235.250  -113957.500
-138113.875  -90077.750
-137692.875  962.250
-129647.625  63975.125
-103213.500  63651.625
-61522.875  63788.500
18782.500  108210.875
48385.625  86316.875
140511.000  56036.375
69006.875  25039.000
155344.500  -84272.875
32861.625  -111987.750
37692.375  -132638.000
21598.125  -146907.000
-67040.500  -55095.125
-149709.375  -37525.000
-105543.375  -67264.000
-129490.500  5487.125
-77021.000  73125.250
-47671.375  111236.750
13585.625  123345.500
129110.375  40392.125
101863.250  37490.375
121118.500  25450.750
75990.500  -40891.750
102708.500  -76061.375
20439.125  -174650.625
12665.250  -146881.250
-102964.875  -121785.750
