        $SEQPAR
        ECHOTIME= 0.1300000000000000
        DWELLTIME= 0.0001220000000000
        HZPPPM= 0.0000000000000000, 0.0002025255087268
        SEQ= ( 64 )<Singlepulse_31P>
        $END
        $NMID
        ID= '( 60 )<NADH_20mM>'
        FMTDAT= '%6.3f'
        TRAMP= 0.1100000000000000
        $END
-611679.188  -103159.188
-1947657.500  -296993.156
-1821930.250  -395525.656
-1803147.531  -574522.000
-1654033.750  -524313.281
-1760916.094  -617143.688
-1670778.562  -717761.594
-1613445.438  -794751.656
-1565058.969  -825331.125
-1607130.812  -933721.594
-1446107.031  -969781.188
-1477687.781  -1062546.094
-1359178.844  -1138162.375
-1341486.938  -1169852.125
-1261721.219  -1218735.406
-1206786.812  -1277987.906
-1118078.719  -1317762.312
-1058706.531  -1337763.000
-1020237.781  -1395720.781
-939678.031  -1423225.062
-864307.125  -1476341.656
-769466.625  -1484491.812
-688883.938  -1514347.812
-621779.469  -1538684.656
-523340.250  -1561406.250
-447712.844  -1579488.375
-378238.812  -1580434.094
-297793.781  -1600665.812
-225326.125  -1558313.750
-166437.406  -1552977.812
-62577.281  -1566799.125
-22018.625  -1552955.281
69044.500  -1521755.562
118630.750  -1530006.844
205592.875  -1505479.219
307277.625  -1466309.438
345501.594  -1418433.938
373210.531  -1405824.375
488776.594  -1398176.156
517164.875  -1352739.594
620163.062  -1275583.938
661008.688  -1255357.688
720094.781  -1209326.781
755678.438  -1154838.812
817565.438  -1084196.500
865887.094  -1056897.062
903636.562  -1033331.688
918908.500  -956573.562
971205.000  -921352.000
989457.406  -854164.438
1029587.875  -772076.094
1077372.438  -720703.781
1079096.000  -668476.719
1127472.062  -621159.812
1124981.062  -564360.531
1131283.250  -469958.000
1157702.125  -385445.719
1156443.312  -359259.562
1190379.438  -300640.500
1194414.125  -193582.156
1162701.281  -179072.656
1178195.094  -96878.844
1150980.062  -60926.406
1165379.438  29094.688
1161366.656  84375.781
1126184.312  129107.406
1119299.031  183381.094
1101079.312  239555.969
1065360.000  309043.281
1041194.375  349015.719
1038057.031  387891.312
1003031.219  416384.250
967799.719  498337.312
945596.656  545137.000
893546.438  607685.188
849112.594  616251.469
836479.656  679931.219
770781.719  698258.438
761348.719  746398.188
714900.344  779005.969
653284.594  765731.719
634254.344  847461.438
602703.938  872072.875
531449.875  876813.469
441512.062  877883.562
409287.500  879707.125
366700.156  957620.500
342721.312  937260.531
296594.031  937611.344
232922.156  962473.031
187239.219  969349.781
157928.594  921414.281
101369.438  990899.906
33417.719  940403.812
-6629.438  953298.312
-43020.844  942721.469
-117756.125  938126.812
-117590.344  934713.250
-205074.406  954424.750
-200735.969  938413.531
-263755.594  880637.812
-317826.781  871222.406
-346687.844  872945.469
-379609.000  855576.438
-427245.469  828860.281
-464662.219  775411.156
-503701.906  760665.656
-538339.938  743820.312
-577675.094  713586.125
-643087.844  679985.938
-634189.344  643213.125
-674034.594  597542.938
-683962.781  577724.938
-671730.375  555036.531
-745429.875  512726.750
-753988.844  449323.969
-761586.188  449772.750
-795489.562  346391.656
-841029.594  339363.812
-852410.938  325237.875
-818208.844  280369.656
-840030.312  210928.344
-875485.875  169166.062
-850538.438  149185.969
-862812.219  115194.750
-849467.906  57245.281
-877909.812  20248.500
-868321.156  -23898.594
-838541.531  -77102.625
-825648.688  -68196.469
-821862.938  -156612.906
-828510.031  -171108.875
-808198.250  -245687.281
-794228.406  -256261.156
-765013.469  -320051.000
-783807.406  -340837.594
-743255.750  -390657.844
-747277.031  -403552.625
-706286.719  -447762.969
-697401.531  -475212.094
-652176.250  -512105.500
-602147.781  -536896.281
-634285.781  -592669.031
-569506.625  -616032.531
-546304.500  -625079.094
-499529.656  -632413.531
-449548.594  -661553.125
-416553.062  -697007.750
-375749.094  -720182.219
-363787.781  -704348.875
-303648.219  -743637.375
-275799.750  -761917.000
-235878.062  -761662.031
-203739.094  -752753.938
-149842.344  -817075.500
-135887.562  -772838.469
-116726.969  -797688.094
-27645.688  -768560.750
6966.062  -784719.906
34213.438  -821063.344
66961.281  -793879.125
114550.875  -770895.125
162324.750  -743376.750
207224.656  -758906.656
218901.594  -700354.438
242272.219  -723111.938
298118.875  -714920.188
339476.531  -681115.938
376197.938  -667962.438
407684.875  -628726.969
435629.375  -633699.406
438974.781  -610830.969
490038.688  -571331.219
525865.500  -521427.438
498434.438  -532719.688
585844.531  -487651.844
574641.938  -457205.469
583721.312  -437355.875
670490.844  -384077.250
618021.062  -360147.469
695904.156  -330713.406
676763.844  -291826.688
672677.750  -279054.844
673222.281  -218891.281
742831.969  -193383.594
689342.656  -186782.344
696565.750  -114442.344
725664.250  -101868.781
709991.875  -33743.656
717166.500  -15630.531
721477.938  31979.406
736296.750  64690.656
711721.469  114633.938
698583.312  132704.938
682060.562  177057.281
650339.656  203018.219
680841.875  239564.750
642424.250  267633.781
631026.531  316839.156
625523.500  327330.406
582325.031  341310.219
596285.656  403535.156
543072.938  451070.750
550833.219  446533.000
498580.969  488050.938
487016.062  451026.219
465361.750  532355.219
442539.750  552223.688
383282.875  546917.125
389413.031  571308.938
337848.469  577497.031
292913.344  598679.938
271166.469  610246.812
228145.375  637973.469
230198.156  626481.812
177609.406  656019.812
139311.156  648398.156
90764.656  662218.031
88600.312  658743.625
48946.312  650468.375
12884.719  652386.188
-9468.281  650605.094
-68510.781  632689.344
-83981.500  644288.312
-104700.000  647051.375
-143881.156  649115.469
-187132.875  625855.344
-198479.875  617718.000
-246920.562  609422.875
-255018.188  617011.500
-306152.781  572883.062
-340461.094  547002.125
-360303.781  548936.062
-365771.344  533288.656
-400821.875  496453.156
-410805.188  441238.656
-441892.375  437687.344
-473878.906  419494.688
-491997.281  385591.781
-517290.219  375557.031
-515187.969  347188.844
-558583.344  324688.625
-574093.719  276787.844
-573559.094  284009.500
-551522.875  225358.094
-578792.000  170253.750
-600222.594  190933.625
-615385.750  130185.344
-621365.750  109723.094
-613812.750  93779.594
-632225.250  72052.719
-614273.125  20268.594
-614478.750  -3187.594
-607513.688  -67625.656
-583686.906  -60836.031
-589730.125  -125786.875
-580487.656  -171226.469
-571858.312  -145622.594
-581627.969  -205816.719
-536822.906  -200389.406
-555186.250  -270860.156
-560242.062  -290672.812
-531452.312  -306303.969
-530799.812  -340283.812
-478284.344  -326990.156
-431192.875  -379618.938
-452458.719  -404855.531
-422448.781  -420565.500
-404993.469  -429730.156
-379160.344  -457745.094
-372412.500  -482671.344
-340644.906  -493447.531
-284245.781  -504465.844
-278764.375  -522516.688
-263134.188  -538462.281
-228394.219  -525630.906
-218099.781  -552330.719
-139722.219  -603250.344
-147657.062  -576499.000
-116645.938  -575543.844
-66512.531  -596620.281
-45852.938  -624550.000
-41607.094  -583871.000
34321.781  -576992.062
69499.656  -588273.406
65983.188  -589506.281
74079.000  -564523.969
130682.344  -575616.656
160304.062  -554746.188
169749.938  -530220.281
220294.781  -529844.281
259496.594  -520175.781
247825.938  -528329.156
312572.562  -505017.375
280958.844  -510216.156
306615.531  -468133.281
363974.531  -462010.094
397288.469  -447257.250
393900.875  -390872.938
423543.625  -402348.188
443407.000  -388048.875
452658.000  -351807.312
505043.312  -315455.156
497806.062  -318603.531
513785.469  -272101.281
509927.562  -217512.969
542426.406  -235144.875
522578.031  -188480.781
540783.750  -186368.312
537680.062  -117163.625
540128.812  -121103.375
549110.812  -120229.812
540186.531  -35410.031
574149.562  -32670.688
564948.094  -18678.750
557102.500  42459.188
565177.344  47159.281
536320.406  58715.938
581115.750  127948.844
545660.062  144228.594
487648.156  152087.656
522450.719  191925.156
500681.844  216484.312
512221.438  248490.375
488664.531  259516.469
472211.875  307033.031
443493.062  324160.031
403029.812  354345.875
399093.875  332787.781
361124.031  359750.719
370805.406  399747.906
325431.750  373312.750
317632.594  428361.438
322695.375  449208.219
301585.031  449228.594
237072.625  501630.938
212277.562  463111.781
214374.875  491876.750
181617.938  460020.812
175827.000  501872.438
153616.188  502371.406
112751.906  521590.000
86217.938  511231.781
67095.031  535707.094
36656.250  530024.250
13914.938  517686.562
-9654.438  541708.906
-32865.594  517681.125
-86033.031  505899.781
-86699.719  524456.156
-86949.844  533390.906
-133103.812  465881.531
-143839.344  485190.344
-186599.312  458393.375
-211661.625  448589.344
-265339.188  461405.469
-251834.312  454798.875
-254951.250  414241.250
-279953.625  387083.281
-298962.969  401098.812
-317689.375  371167.594
-331981.219  350971.094
-332408.250  301538.656
-356849.781  295896.250
-380211.938  316242.156
-394356.719  271815.812
-400667.906  245167.750
-415056.344  232328.062
-441620.312  196365.969
-412022.750  202721.312
-479004.375  146813.594
-397130.031  155351.062
-423026.125  117743.969
-451630.750  96442.219
-449454.625  94391.375
-451488.969  15136.969
-442327.281  25855.719
-418244.750  25615.656
-430542.125  1757.156
-416178.750  612.562
-435828.562  -72732.656
-425170.969  -46102.750
-386615.375  -92931.844
-403831.531  -147864.031
-401513.531  -126281.906
-384384.469  -135731.219
-371709.000  -168053.062
-349834.719  -188513.656
-370291.062  -191876.656
-348119.750  -209709.344
-285873.625  -208594.375
-309437.000  -241609.125
-290171.906  -256294.969
-303517.906  -265903.688
-257623.031  -272667.500
-232449.156  -276980.062
-243137.969  -279877.875
-233389.875  -317829.562
-217824.469  -310145.344
-183560.188  -336663.250
-171754.344  -327109.469
-151811.094  -322517.312
