        $SEQPAR
        DWELLTIME= 0.0001220000000000
        HZPPPM= 0.0000000000000000, 0.0002025255087268
        SEQ= ( 64 )<ISIS_31P>
        $END
        $NMID
        ID= '( 60 )<NADH_20mM>'
        FMTDAT= '%6.3f'
        TRAMP= 0.1100000000000000
        $END
29206.625  -76362.000
7123.750  -349173.625
-145272.250  -229650.875
-245309.875  -181536.250
-309467.750  -45588.125
-302432.500  45658.250
-242536.875  129889.375
-173193.750  257936.000
-23679.750  257741.750
81946.750  336974.750
182761.000  243229.250
259451.000  137530.375
331722.000  -23801.500
323661.000  -103735.500
186750.000  -213839.625
24531.375  -262925.250
-30608.500  -271036.125
-130336.750  -301424.000
-236297.625  -119019.375
-254565.000  -66938.625
-318243.125  40241.875
-280791.875  145626.125
-83346.750  247715.000
-51646.500  236987.000
91263.500  275244.750
163701.875  191660.375
211669.750  105280.125
248842.500  -62499.375
321187.375  -136763.125
141230.000  -232470.000
81940.875  -230532.125
-67743.125  -299508.875
-180446.125  -193968.500
-245614.250  -97702.500
-287488.125  10215.625
-243141.375  146331.500
-188448.375  176419.250
-75911.750  254848.000
-45325.000  257562.625
122355.250  164462.375
243233.000  131472.250
187633.375  84452.000
246205.000  -84699.875
196597.000  -114694.500
50494.875  -249183.250
14904.875  -264653.750
-80222.750  -170131.000
-224969.250  -133442.000
-163713.000  -70405.250
-245532.500  19268.375
-265252.375  149161.125
-151479.375  219410.625
-29429.500  153563.375
-14524.125  185352.500
134560.750  132670.625
186979.500  151847.125
177931.000  38038.250
240336.375  -25184.625
259819.500  -134995.125
68347.000  -212520.500
-36283.750  -236872.250
-101898.375  -195981.000
-175436.125  -136443.125
-178449.375  -37258.000
-200426.000  19127.625
-164412.750  112288.750
-132284.625  155188.875
-19050.125  147530.000
46840.625  204758.125
137419.500  138962.875
133710.875  155802.500
197636.000  -30315.125
193492.750  -49204.625
221072.250  -122361.375
87772.500  -213912.500
51951.625  -209639.125
-115434.125  -139593.625
-202243.750  -162621.000
-223465.125  -3346.375
-208166.875  -1949.625
-131571.625  133275.750
-78287.625  168435.875
-17518.000  150796.500
8176.125  134625.625
134300.125  120825.125
248319.750  57840.125
192285.125  -52824.625
171851.000  -153783.375
73455.750  -107427.500
72527.750  -219434.250
6358.250  -219548.750
-101887.500  -114729.750
-121177.125  -103343.625
-162183.125  27282.375
-112024.750  37386.000
-136787.250  165778.000
-65361.125  129429.000
-73638.500  114735.000
83812.875  114483.000
185120.000  103419.500
211912.625  104326.000
129439.625  -41331.875
106350.125  -128297.500
104741.625  -145263.750
45013.500  -128263.875
-53547.875  -133710.000
-120566.500  -104400.500
-102751.375  -112748.500
-171886.125  47867.875
-149870.875  96220.625
-109503.250  124219.625
-3681.125  148825.000
-8570.875  164919.000
99133.750  152666.750
155327.750  122965.375
169932.000  71418.125
165112.125  -64135.375
106101.625  -134023.250
65776.125  -159025.250
-45384.250  -157785.375
-24582.125  -114105.125
-94058.125  -108919.625
-94681.375  -57807.750
-223830.125  53833.375
-97128.875  89249.625
-116978.375  135396.750
21742.625  125821.875
309.250  136091.500
149544.375  110821.000
176493.000  66509.875
183866.625  -13090.875
139191.625  -70646.750
97550.500  -130315.000
36168.000  -148632.625
-44113.375  -121840.750
-87344.375  -54491.000
-127755.750  -79439.500
-156923.375  -22044.500
-178404.750  18155.750
-120597.125  99114.625
-84347.875  141631.625
34988.500  205067.250
85334.625  223994.750
68628.750  94561.250
219831.375  -20196.375
208933.500  -32375.250
152977.250  -76021.000
123197.375  -125840.250
49120.375  -174335.625
20649.250  -186597.125
-90462.375  -87156.625
-129472.000  -134434.500
-181270.000  -51996.625
-101960.000  62361.250
-102375.500  133014.625
-95130.125  151380.250
21956.875  170244.500
55952.125  133734.125
58118.750  111366.125
180702.125  -35254.000
148959.500  -39698.750
67521.000  -114795.875
37038.250  -99244.625
-7368.625  -214028.625
-90866.500  -187059.125
-99577.000  -100750.000
-161725.750  -3360.625
-185011.750  21543.625
-186258.000  20619.750
-142131.250  153270.375
-57650.125  197522.125
89193.000  138895.375
42193.250  62559.125
153925.000  71387.875
91737.750  7761.000
208819.375  -25080.625
97585.375  -121751.375
89535.625  -131621.375
17520.500  -206827.125
-38320.875  -169876.000
-74762.625  -77718.875
-137652.625  -94064.125
-178878.875  11374.750
-119969.875  28319.875
-81423.375  124348.250
-17042.125  137959.500
42222.125  124892.250
84614.750  150639.625
97675.125  78573.000
94251.625  -49737.250
218143.375  16141.875
73420.500  -81152.125
30225.250  -148598.125
36185.250  -149819.875
-26751.125  -180865.250
-122727.500  -73902.750
-211753.375  -55793.125
-108276.000  61459.375
-154563.875  47295.125
-82783.875  155057.375
17409.500  101663.875
22650.750  162037.750
121008.875  119700.000
80572.125  17608.625
139762.875  -37866.875
150862.000  -38718.125
85422.375  -71112.375
73288.625  -124419.250
16477.375  -92804.875
-105859.125  -109157.500
-148388.750  -57629.875
-132026.125  -9000.625
-131728.125  69724.250
-109458.875  62554.250
-8727.000  109709.625
-6326.750  173735.875
83769.375  67897.375
81650.125  82399.125
152003.375  54345.750
168580.750  -31102.500
123015.250  -143705.250
113476.375  -141072.625
6664.375  -85067.875
-12246.750  -153474.000
-82127.625  -79785.000
-133569.750  -70455.875
-232463.625  34263.875
-113632.875  100197.625
-157678.750  41046.625
-16654.625  111995.875
24829.125  86776.250
111968.625  115210.875
113030.875  34381.875
146392.125  -35054.875
123949.875  30751.250
63690.875  -58484.750
76698.375  -146367.625
5393.875  -144899.125
-40577.125  -123428.125
-71729.250  -83672.625
-95381.250  -70579.375
-186903.750  64604.375
-124153.375  52790.000
-110213.375  119802.250
-25765.000  167889.875
30035.875  146638.125
101779.250  75007.500
108372.250  68389.000
116639.625  16404.500
160222.125  -20780.875
87971.375  -125921.750
21089.000  -101998.750
-67453.000  -144582.875
-79188.500  -120528.750
-142334.875  -91969.500
-188083.375  7819.000
-97345.250  34053.750
-128148.875  64693.750
-77518.875  111336.500
-60674.750  136093.125
81094.625  115072.625
118275.375  136906.500
100073.750  43984.250
143827.625  -27660.125
77527.625  -125264.625
73988.500  -187355.875
66304.500  -244409.875
-37185.375  -153356.375
-95180.000  -35196.250
-110563.500  -54067.250
-132280.500  -31241.000
-145341.500  -18611.375
-76604.375  61398.750
-88531.625  102157.875
-26686.500  134167.000
137916.250  130175.375
95445.000  108381.625
135207.375  70153.500
151382.250  -3524.750
107797.125  -97163.875
64259.125  -36091.125
84418.125  -130070.500
-51797.000  -157284.375
-44983.875  -71952.000
-117732.500  -48025.125
-149724.375  1623.375
-133136.625  28310.250
-85593.625  77872.500
-86179.875  162694.500
28193.375  125930.375
51880.000  161469.625
119090.000  94008.625
137810.125  -24761.375
100225.125  -31004.750
105490.125  -94615.125
66492.125  -130355.375
14596.375  -115455.875
-93232.250  -125998.125
-89717.250  -89706.500
-136490.750  -15884.375
-169885.500  -39311.750
-69866.250  102430.125
-93395.125  69588.750
-54959.500  145603.125
40836.125  158138.625
88755.250  109226.250
66240.000  97199.750
73557.375  -7013.875
128171.750  -64819.875
92283.500  -84131.500
74324.750  -124600.000
-38832.000  -183610.125
-155351.625  -132611.625
-142833.250  -92642.000
-133537.625  -50301.125
-119467.125  46037.250
-96203.875  46843.375
7021.625  121108.500
-79462.625  98322.375
38505.875  127551.750
104382.875  74952.250
141341.750  38520.625
124253.000  37814.375
133721.875  -42213.875
67549.000  -96291.000
68055.875  -153083.375
-359.750  -150896.125
-136260.000  -152706.125
-138262.500  -31041.625
-209815.625  -16070.250
-112850.000  -37347.250
-108106.375  64191.375
-46094.875  134778.625
36647.750  113006.875
52830.125  153499.625
71885.250  100258.875
129105.625  21311.750
139098.750  1193.500
47366.500  -41128.875
49802.500  -75240.750
12743.875  -111733.000
-44488.125  -159935.250
-65758.750  -115347.750
-144319.750  -86628.750
-120584.250  15827.875
-123502.875  56215.125
-185845.000  82614.250
-104647.125  158911.000
9046.875  95517.875
59811.750  130625.875
72333.000  63195.875
133853.500  28362.375
136353.125  -98714.500
96877.500  -61182.625
98350.500  -133514.750
-475.375  -128402.000
-35179.500  -102131.500
-104056.500  -101247.500
-145008.875  -38907.625
-100098.250  -8372.250
-138557.500  30543.375
-5210.750  160710.250
-49871.500  160619.750
47500.625  148034.750
44266.750  72032.875
120176.000  53267.375
94718.500  -12409.375
152957.000  -101010.625
68275.625  -73246.875
15830.625  -162688.625
48108.125  -59947.625
-96902.250  -19904.125
-138108.125  -53457.500
-129802.500  -32580.875
-75439.375  96339.375
-113061.625  85779.625
-48702.625  149096.000
-23867.000  98780.500
48581.500  153926.500
110200.000  102695.625
87279.125  72131.750
88291.625  -15511.750
90510.250  -49163.375
-10496.875  -108756.125
-47435.750  -111457.125
-99744.250  -79488.250
-76608.750  -74486.250
-66669.625  -39687.375
-124065.875  12526.875
-119954.625  73926.625
-103756.625  90029.375
-7256.875  54286.375
84371.250  49098.750
75924.000  47963.250
5730.375  27593.250
54841.875  -13384.750
52980.125  -24478.125
67224.875  -72970.875
11855.750  -75440.250
22215.250  -118871.625
-27996.750  -85826.750
-36274.750  -50177.625
-90873.250  -83464.375
-114467.000  39527.125
-88866.375  113300.125
-57647.500  43441.625
-69296.250  92043.000
-12218.750  112962.250
61841.000  11254.000
24599.750  23899.375
136879.875  21086.125
51769.125  -39571.875
35095.875  -59580.375
101337.500  -35124.750
24049.375  -110043.250
8902.625  -34579.125
-74202.250  -61633.750
-72429.875  -36266.500
-78868.750  -61803.375
-36534.375  66952.500
-71627.875  94254.125
-57040.625  39700.625
23293.000  91479.875
30153.125  48861.250
