        $SEQPAR
        DWELLTIME= 0.0001220000000000
        HZPPPM= 0.0000000000000000, 0.0002025255087268
        SEQ= ( 64 )<ISIS_31P>
        $END
        $NMID
        ID= '( 60 )<NADH_20mM>'
        FMTDAT= '%6.3f'
        TRAMP= 0.1100000000000000
        $END
18045.375  -116322.750
-59453.000  -317372.000
-190075.875  -269009.625
-307841.375  -258250.625
-362901.875  -48522.875
-386342.875  72555.375
-301263.000  232497.625
-182224.125  242721.375
-56263.625  330843.750
44495.875  325151.625
198927.125  229225.750
298476.250  113122.750
341266.625  -9515.875
302724.125  -177706.375
212453.500  -283253.750
56307.250  -314985.500
-81386.875  -249255.625
-175738.750  -212028.000
-339688.875  -156050.625
-340191.500  -18334.375
-256045.000  95226.875
-147362.375  209407.125
-87662.750  282648.625
93945.625  282742.500
122570.000  287669.625
205723.625  73214.750
332098.500  -460.250
272375.375  -105945.125
186472.500  -151437.875
120586.125  -258578.000
2145.875  -306686.375
-217261.375  -227837.125
-180259.375  -142862.875
-276739.750  -9624.250
-333978.500  49589.250
-241074.125  162154.875
-86731.375  206782.875
4332.750  266065.625
55891.500  252163.375
188710.000  179592.750
277708.500  46007.625
241681.375  -32942.125
170095.875  -198087.500
139745.250  -201692.875
9387.000  -196785.250
-113701.750  -202004.875
-98630.250  -180634.000
-218186.875  -99985.500
-270726.750  44122.125
-211244.125  197126.000
-162280.625  175814.000
-42425.250  258007.375
26098.125  238448.875
154399.625  187531.625
195808.750  101997.000
210540.750  18962.500
210317.125  -129068.375
139510.375  -178392.375
67195.000  -267738.750
-62132.500  -260708.000
-93127.750  -176999.875
-225808.500  -102052.250
-198954.500  -19942.250
-151051.750  74716.500
-126207.875  118923.000
-98993.375  249249.125
-6832.125  225285.750
76493.625  209821.625
210791.750  108827.625
185781.375  36707.250
210202.875  -32564.500
188961.625  -102506.125
51544.500  -130830.000
66884.250  -139154.125
-102401.250  -153890.625
-140069.750  -142516.000
-200216.000  -59500.000
-165866.625  84067.125
-197356.500  56511.125
-93083.625  167729.250
-87539.875  219690.750
85042.750  212050.750
151376.375  162300.750
214488.750  162676.625
220346.375  -15967.875
141169.500  -134451.250
119969.500  -171702.500
69077.125  -210062.750
-88612.500  -173814.875
-168653.750  -213579.625
-189071.250  -116401.750
-226790.500  -42079.000
-97917.625  129733.750
-77476.625  147413.500
-66592.000  157373.125
113642.250  180104.875
93891.625  162513.875
165703.375  121243.250
224712.500  64879.875
182140.625  -91940.000
175467.125  -122743.750
71178.000  -165154.625
8855.625  -136339.250
-100101.625  -166320.625
-165511.250  -103787.000
-199670.750  -54368.625
-270118.875  97142.625
-152619.000  77952.000
-64469.250  161312.000
-9197.375  213838.375
101555.000  211633.125
142695.875  126372.000
151047.500  98455.125
185390.750  4692.750
178151.125  -108033.625
150434.875  -222576.625
73274.125  -183817.250
-41240.000  -178580.250
-83629.500  -129645.250
-160503.750  -42557.750
-212984.500  -38330.500
-146281.250  134399.250
-90033.000  157693.250
-63783.750  215344.125
35785.000  182167.500
95817.500  163220.250
219712.750  150778.500
198291.000  10489.250
211525.375  -62916.000
99636.125  -182233.375
-6573.000  -183140.750
-61079.500  -163846.750
-65365.625  -137325.500
-134304.250  -111079.125
-176771.375  -13602.875
-177387.750  52238.000
-174321.250  109968.000
-118911.875  177027.875
50801.750  202875.000
112915.375  155746.125
139267.375  127357.625
183746.750  38932.625
208490.375  -89399.875
128832.500  -108390.500
65120.625  -183694.125
-41674.375  -165069.875
-94761.000  -172818.375
-114403.375  -100356.875
-223005.375  -85356.500
-157162.250  29659.625
-169875.000  153395.500
-56973.625  82834.000
-68368.250  212391.375
34910.000  130436.375
85565.750  106328.750
68702.750  65570.125
143926.875  -36177.625
163761.250  -72407.750
119867.000  -173232.500
19661.750  -184942.250
-22222.750  -225602.375
-148366.250  -164600.125
-204142.125  -33083.500
-192936.750  25364.125
-205513.875  46255.375
-7838.875  91722.250
-62974.375  137953.375
-4600.625  144107.500
104183.625  119916.000
149037.625  49953.375
149174.125  34348.125
117449.875  -18769.375
119366.750  -99607.750
64821.875  -129265.125
-59739.875  -205088.250
-73951.125  -182717.750
-121615.750  -103491.875
-161688.125  -73094.875
-149832.500  20144.500
-143425.375  68394.625
-99583.750  105550.125
-8356.875  216359.125
46697.500  140223.875
86502.875  108335.500
136850.625  27690.875
147366.750  16118.875
107016.625  -131584.875
47450.500  -118648.875
512.500  -120384.000
-79225.750  -182589.125
-131101.500  -131928.875
-115192.125  -59694.000
-161738.625  52580.500
-197951.625  65418.875
-102903.750  66541.750
-56938.000  170822.750
25269.125  175769.750
52088.875  161789.375
169672.875  97209.625
115756.125  -4634.375
142100.250  -36418.000
51427.625  -116514.875
85916.250  -120360.125
-7480.625  -147178.000
-45974.375  -129581.500
-94792.625  -127621.000
-153648.125  40163.375
-120068.750  37203.750
-123190.500  81000.125
-55137.250  120356.625
53794.250  148495.750
88384.250  125201.625
165733.500  93896.000
143310.875  21650.750
160114.250  -22972.250
70725.250  -132342.375
46314.000  -127321.500
48951.375  -88783.250
-60288.625  -159236.625
-144609.125  -80991.250
-157446.625  -98448.500
-133163.625  32649.250
-107912.500  152800.500
-73431.750  130888.250
1938.375  139389.000
71147.375  117916.625
150582.250  153062.625
135958.750  79727.875
116661.000  -30440.875
149074.750  -92055.125
93259.750  -41833.500
101877.500  -138467.000
-16870.000  -141992.875
-96072.250  -120438.000
-171233.625  -90919.125
-137150.750  -69923.500
-104543.250  132448.250
-153449.750  61442.250
-24705.250  191904.750
21220.875  152286.250
-10799.125  122905.250
158933.750  119293.500
199990.000  66013.625
178361.875  -28624.750
105043.000  -134799.125
36296.750  -177801.375
-25841.000  -131634.375
-26827.375  -164525.875
-149820.375  -110708.000
-125100.375  -6621.375
-149330.250  69191.375
-78472.500  88812.250
-86964.125  119823.375
24584.875  168510.750
82674.125  113635.875
107244.125  54918.250
127364.375  75256.125
134005.125  -4118.750
126155.125  -48376.375
121641.625  -85657.875
25149.500  -95531.375
-46503.625  -179710.875
-107479.750  -115740.625
-163221.750  -88634.375
-138114.625  -11716.875
-139278.250  76069.500
-102286.000  181563.625
-78928.250  183048.750
50176.375  143131.250
43239.875  73813.875
167899.375  97542.750
176208.875  3656.375
94415.625  -38291.000
124305.625  -78090.875
51782.000  -123445.875
-23561.625  -66457.250
-12254.750  -139553.875
-86245.875  -89968.875
-133938.000  -67617.250
-228756.375  27074.500
-95989.375  82671.500
-48504.000  105134.250
19480.375  111563.000
80304.500  135640.625
90511.250  80340.750
134528.875  37556.125
88383.875  44614.875
157413.875  -39936.500
50733.625  -93953.875
23950.000  -166444.625
-9413.500  -180772.625
-106017.875  -153692.625
-71793.000  -139852.875
-136308.375  -21713.500
-171404.875  81356.000
-21864.500  35485.500
4574.875  92019.375
16385.000  123731.000
142206.000  126386.875
101849.000  112893.000
102111.125  43288.375
126604.875  -36518.250
107663.250  -121795.500
25082.500  -103234.375
-6801.875  -132881.125
-101087.000  -119024.500
-139461.375  -71035.250
-140722.125  -13455.750
-183613.125  53620.750
-86293.125  152144.625
-86799.625  129314.625
9582.250  135855.750
100392.125  46513.750
121145.750  71757.875
105298.625  -31662.625
103866.250  -28001.875
128900.500  -109583.625
118551.500  -157932.625
-49238.500  -169296.250
-35669.500  -123887.000
-9302.250  -38117.500
-79170.375  -42079.625
-162992.500  34482.875
-118702.750  118895.000
-88139.000  106428.250
-118441.250  187003.125
46469.250  136182.625
64019.125  61242.125
124204.000  76976.125
162992.125  17514.500
137911.125  -42999.125
124531.375  -101873.125
82069.625  -118263.750
-64980.125  -115267.875
-27861.125  -123367.500
-148218.625  -87193.750
-215870.250  -8854.375
-134439.500  29408.250
-58054.750  98521.250
-54589.875  133970.875
8690.750  118612.250
83294.875  97159.875
85537.000  14330.125
143603.875  -36158.875
165512.125  -99680.000
72662.250  -28972.625
45454.625  -122478.250
-17647.750  -117400.875
-74642.125  -125320.500
-83870.875  -63823.500
-126538.500  60794.875
-201569.625  10999.125
-127757.125  110539.125
-53569.250  86501.250
33322.000  143827.125
-17256.500  54521.500
77907.750  110744.875
130017.625  46051.125
135877.875  -10633.500
136744.750  -45812.500
31173.625  -108484.250
24513.000  -119224.625
-74767.750  -83421.875
-134536.875  -73787.375
-98016.000  918.875
-83138.375  30613.625
-105242.875  27767.750
-70821.750  112712.875
6110.500  120212.500
41791.125  124315.500
92875.250  116613.500
182047.125  71152.500
54948.000  23242.875
77121.500  -70010.375
38812.125  -145827.125
30398.250  -149689.500
2724.875  -116136.375
-107156.500  -111762.250
-83838.625  -11406.500
-114962.250  -29858.500
-115849.875  27720.125
-120149.250  106864.000
-71028.500  114143.625
-3811.875  129950.250
64933.500  92802.625
150682.625  -5705.750
101121.500  82246.125
39826.125  -18122.125
84098.625  17328.750
57531.250  -21962.375
-8311.500  -101499.250
-75429.000  -114016.750
-102284.875  -82405.750
-118806.875  5821.000
-89330.625  -49340.750
-47242.875  34059.500
-11878.375  113847.500
-19930.375  154118.000
29047.000  156411.250
94158.750  71055.250
142484.875  4209.625
111963.750  -26023.750
30300.500  -72561.000
16230.500  -37441.250
-13495.750  -100948.750
-84185.750  -90780.750
-87608.375  -68298.500
-3826.500  -2099.250
-89060.125  5390.875
-103961.250  22560.125
-54528.250  93735.000
-61157.000  55822.000
24250.750  112280.125
57672.625  135237.875
24124.250  9170.125
55281.125  3548.125
83184.375  -12978.750
32527.000  -63153.125
25199.250  -113848.750
29514.625  -107684.375
-80984.625  -133690.000
-8111.000  -35776.125
-94097.375  -10087.500
