        $SEQPAR
        DWELLTIME= 0.0001220000000000
        HZPPPM= 0.0000000000000000, 0.0002025255087268
        SEQ= ( 64 )<ISIS_31P>
        $END
        $NMID
        ID= '( 60 )<NADH_20mM>'
        FMTDAT= '%6.3f'
        TRAMP= 0.1100000000000000
        $END
31618.500  -109950.500
64373.500  -366504.500
-180010.625  -293811.875
-256612.000  -208051.250
-273996.750  -94083.750
-310774.750  21071.375
-300387.250  163256.750
-228643.625  236600.875
-47816.625  296865.000
125771.750  294547.875
197539.375  200171.250
309701.000  163127.625
355976.750  -31435.875
268678.375  -119813.875
231870.000  -169899.375
64841.875  -326483.250
-52842.750  -337622.375
-198840.250  -203407.125
-298976.250  -110539.000
-306536.250  35908.125
-311739.625  154940.875
-305951.500  178309.750
-85905.375  256234.750
19374.625  314425.750
140950.875  271352.625
261091.000  169415.500
318192.125  86077.750
272958.500  -104425.625
217338.000  -157176.625
134149.125  -259298.750
-15891.375  -304624.000
-113239.375  -285600.250
-211812.375  -190631.625
-258908.125  -65189.375
-238774.750  5056.500
-205657.750  161725.750
-141008.875  190503.875
1735.000  271155.500
91116.750  314458.375
132220.125  212105.875
205338.500  91934.750
255558.875  19124.875
218722.000  -25465.250
188310.625  -167708.125
80440.875  -211396.125
-13784.125  -248347.000
-67869.250  -207780.125
-167533.500  -138244.250
-189071.625  -34107.625
-217893.500  56740.250
-139298.000  230274.000
-115073.500  225521.875
-46059.125  216361.625
113006.875  139470.125
199211.375  134203.000
212108.625  92723.625
273145.875  -79393.500
172646.625  -130034.625
108261.250  -205978.500
-13486.500  -225291.000
-10627.500  -209609.000
-143631.125  -165242.750
-184754.500  -144022.625
-183651.000  -20817.250
-277901.375  88050.000
-139541.375  164217.375
-146183.000  189110.000
-5687.250  242662.750
89507.375  225632.250
167544.500  94651.625
129998.125  30.375
155794.500  -81491.000
130169.000  -133185.500
125415.375  -218676.250
-9455.375  -212181.875
-44648.375  -189537.625
-157496.000  -149634.750
-166820.625  -33029.875
-208082.875  97878.250
-167393.000  110282.625
-82165.000  178595.875
-265.250  181995.250
11650.500  160246.625
86642.375  109562.000
186274.875  77756.375
140522.625  -15165.750
139541.750  -114507.125
123884.875  -160407.750
63479.875  -163747.750
-66320.250  -160939.500
-147505.750  -176898.250
-160420.000  -55833.125
-202472.000  -8743.750
-131286.375  82681.125
-158849.000  101135.500
-66339.500  177859.125
-5741.750  174819.500
60024.500  144405.500
126109.375  111669.125
228643.750  15209.000
184012.750  -4945.000
125559.625  -116459.750
89574.625  -216338.875
10156.500  -158352.000
-38539.625  -182363.000
-123930.625  -133643.875
-135581.625  -40400.250
-180104.875  5810.125
-118930.375  142427.250
-86290.625  130300.500
-56318.875  170788.375
97739.500  139276.625
96460.500  167641.000
101153.375  95780.000
178450.375  27563.375
178771.625  -61266.875
128079.250  -77324.500
76181.625  -171162.125
-34804.625  -199300.750
-55434.500  -127926.875
-142750.750  -138811.875
-135853.250  -4083.000
-166380.875  54088.250
-130989.750  158498.250
-131684.875  179669.500
73337.625  140880.625
70489.375  132373.250
187124.750  169579.250
160038.250  71860.750
190187.750  -45158.500
138281.875  -96767.375
69887.500  -175949.000
44528.250  -154341.250
-56669.250  -130140.750
-121043.375  -117922.000
-224962.375  -84277.500
-167187.500  -2471.500
-166658.250  140947.625
-121079.625  139229.500
3909.250  186123.125
42401.625  190002.625
96253.625  122991.250
169762.125  117391.125
175507.750  51813.125
153402.250  -148233.125
103498.750  -154334.250
91477.750  -129695.125
22357.875  -202459.750
-91762.625  -155602.250
-139425.375  -125642.750
-123394.250  -17440.625
-182932.750  15147.625
-137664.125  85971.875
-46284.750  185429.125
-42735.750  155693.500
43859.000  139867.250
189688.375  138187.250
162860.500  90917.500
103504.875  -37812.625
164163.875  -95428.500
44851.500  -129441.625
39681.250  -116989.250
-71784.750  -207422.625
-104970.750  -123524.625
-164025.125  -127788.500
-95780.125  -40589.875
-174026.750  82640.875
-90132.250  111633.000
-29841.375  165794.875
39870.375  149086.375
96812.875  92561.625
143827.250  72403.750
134482.875  5047.375
134560.375  -15717.125
124986.500  -80927.750
62983.500  -158347.875
-45771.125  -165434.500
-62487.125  -129434.625
-111199.000  -94106.375
-137550.875  -30543.250
-188172.375  45690.125
-190928.000  98972.250
-87111.000  162344.375
-20707.375  217151.375
62382.500  189416.875
158208.875  165996.500
142872.875  47408.500
170503.000  10659.000
123866.500  -52340.500
41299.750  -68971.625
57309.750  -166159.250
-50125.500  -205515.500
-60577.625  -88387.875
-88022.875  -104551.125
-234933.500  -17201.750
-188717.625  15444.125
-129165.000  64878.875
-55288.750  170847.000
53614.250  172254.250
101453.250  99912.500
78584.125  75236.125
124177.500  37632.625
131538.125  -27084.875
99408.000  -61743.000
96859.375  -108415.000
-13162.250  -168478.625
-35164.875  -89993.625
-125781.125  -113902.375
-123058.250  -18545.250
-136757.500  38777.750
-91901.250  58631.125
-98263.375  146274.250
-42063.375  172141.625
38285.250  108887.750
140011.000  139468.375
139651.625  28767.625
105473.750  -14362.250
142858.875  -63290.000
61436.250  -138846.875
-12056.250  -165096.750
-19691.250  -84532.250
-99576.375  -162211.125
-108010.500  -137389.875
-155498.750  -29983.125
-119344.250  54379.625
-126046.750  104590.000
32230.250  142508.125
69959.000  174745.125
21554.875  93511.500
61293.500  58871.500
135784.125  45223.625
175706.125  42879.000
158453.000  -60443.500
106649.125  -75248.750
87809.125  -135239.500
-77064.500  -133519.250
-118863.625  -82769.750
-126538.625  -58256.750
-186476.875  -19838.125
-137897.125  106557.250
-123712.500  157685.375
35078.125  136479.750
29792.125  132581.125
66423.125  160086.875
119564.625  96305.000
182758.625  -25324.625
126249.750  -10792.125
107862.750  -114022.750
55830.000  -159380.625
-12842.500  -154748.500
-69847.000  -180377.125
-96526.375  -137107.000
-135158.750  -119668.750
-97409.250  57150.875
-120628.375  139030.500
-39115.500  147827.875
-25687.750  168327.375
8153.250  137675.625
115355.125  166010.750
81739.875  19710.500
134785.875  33522.625
102360.750  -75729.500
85406.750  -143181.250
1020.875  -132380.625
-30393.750  -79343.500
-60938.125  -90342.000
-94134.125  -14472.500
-131703.250  30835.875
-77496.875  44015.125
-102564.375  96041.125
-32154.250  125339.375
47090.250  115084.750
24591.750  166418.500
88758.875  99687.875
101992.250  1787.750
139476.125  -55652.375
122101.125  -36893.625
100028.125  -59268.250
33518.125  -135850.250
-68894.000  -145599.250
-133189.875  -84848.125
-124621.625  -7644.500
-110901.125  -10825.000
-77738.500  81690.250
-27828.375  63683.625
14627.375  154302.375
30709.250  107487.000
81768.250  136844.125
118475.125  35086.250
153546.125  -185.500
196721.375  -80791.375
59413.500  -106340.875
24479.500  -165503.750
-4829.125  -152456.000
-111764.375  -40797.750
-99886.750  -41725.125
-118038.875  -30694.125
-120603.250  11332.000
-158540.000  113520.875
-97386.125  102249.125
50746.125  134122.625
35634.250  123921.000
59457.500  158236.000
171342.625  1783.000
163797.750  -33372.625
114076.125  -85669.500
97968.875  -165053.000
-15779.125  -205174.375
-13770.375  -149624.750
-99893.625  -90008.625
-119318.125  -66393.375
-122093.250  10377.000
-166285.375  35715.000
-65499.375  40195.000
-9702.375  155047.875
9033.500  182460.250
51364.875  93257.250
166501.875  66685.125
98308.750  4164.250
162637.125  -46014.125
148520.125  -77627.625
-497.875  -69028.250
8043.125  -163960.000
-92533.500  -141215.875
-72339.250  -68679.250
-108615.750  32364.625
-156235.375  88264.625
-93676.250  50408.125
-51732.250  103447.500
-60333.625  166018.250
-5098.125  112249.250
89318.250  68490.375
161868.125  42343.375
110511.750  5559.125
135227.750  -67758.250
96024.875  -74076.250
65204.125  -74792.625
-36899.625  -133358.625
-35684.500  -43223.375
-126760.125  -72240.250
-131074.875  20712.750
-102789.375  57905.750
-99821.250  70052.375
-57660.625  160245.125
-48000.375  102718.500
110705.875  118088.750
78948.750  60315.625
42027.375  10427.250
103447.500  -20134.375
35866.250  -109399.000
81577.500  -148619.000
31331.625  -163962.375
-27211.625  -98968.625
-98080.250  -76127.375
-125995.125  -16604.750
-194326.875  15196.375
-104632.125  56925.375
-31180.875  137309.375
-50598.375  106835.000
51094.500  170607.250
65786.750  66112.250
137488.000  -3441.000
183921.375  -27914.875
123679.375  43062.625
27795.125  -131508.500
28841.500  -145422.875
-10861.125  -141444.250
-133169.750  -114527.500
-121917.750  -36748.625
-120239.875  -41219.750
-71569.625  23067.875
-41790.625  79757.500
25548.000  104510.625
48581.000  50094.500
39665.500  99175.500
97506.500  30670.250
170028.125  -24457.500
110757.000  -56178.250
140060.250  -47940.875
71973.500  -77278.875
22485.125  -118465.125
-64598.000  -99446.750
-73910.000  -30054.375
-138300.625  26270.625
-122240.375  80633.500
-84345.250  71856.250
-42235.500  104931.375
-20080.000  96470.875
40407.625  38687.500
129857.875  78132.375
86661.875  96097.875
91718.625  1409.125
59335.000  -2458.625
32297.625  -89600.750
-34847.000  -72052.375
-7910.000  -145422.250
-77548.750  -114458.375
-64508.500  -33647.875
-38767.625  -12574.125
-124789.875  19179.875
-106464.375  69825.250
22297.250  110986.875
40658.250  131984.750
105450.750  52400.375
93802.500  79564.125
98059.875  55923.375
101936.500  3609.875
49365.250  -72820.125
18892.875  -81727.625
-42043.375  -93340.250
-53845.375  -179686.125
-88580.875  -32094.500
-29393.750  20392.000
-146713.250  -23671.000
-90678.875  43136.500
5702.250  81487.750
24101.750  122599.125
36476.125  65903.500
74263.125  67556.375
72391.250  30944.125
114051.625  12093.750
94152.375  -45647.375
15347.625  -51570.500
-3026.375  -84433.750
