        $SEQPAR
        DWELLTIME= 0.0001220000000000
        HZPPPM= 0.0000000000000000, 0.0002025255087268
        SEQ= ( 64 )<ISIS_31P>
        $END
        $NMID
        ID= '( 60 )<NADH_20mM>'
        FMTDAT= '%6.3f'
        TRAMP= 0.1100000000000000
        $END
23243.375  -120020.375
-5956.000  -274776.000
-157783.750  -161584.625
-241258.750  -252496.875
-276765.250  -96663.625
-305426.500  40353.500
-240233.375  153386.250
-187322.875  204019.500
-83840.000  289041.250
61555.000  271754.000
156652.125  246775.875
268705.375  86209.250
293297.875  42180.250
217053.750  -72839.375
217064.625  -192361.375
53016.000  -239678.250
-10839.000  -312078.000
-123268.000  -296043.250
-200444.375  -149339.500
-293260.500  -50881.875
-281290.000  65099.125
-240436.125  140449.500
-130791.875  190598.750
-68748.125  290984.125
37797.500  306359.375
184618.500  255094.750
215839.875  60096.625
293248.500  12906.750
231266.375  -71889.000
172191.625  -209442.875
17916.125  -221146.750
-47604.000  -200819.250
-78843.625  -214172.375
-195982.375  -152406.250
-241226.875  -51322.000
-208641.375  7607.875
-224163.375  134078.375
-95115.250  186414.500
-55620.125  237604.750
5296.875  203621.875
165054.375  171718.875
239799.125  108201.375
176411.500  -11630.750
202743.000  -39336.250
180067.500  -90168.000
116203.875  -207096.625
27166.000  -199350.875
-130461.000  -212222.875
-159790.750  -172192.375
-165497.125  -54609.375
-163941.625  51321.750
-154228.125  76308.125
-104491.375  138192.875
-17304.125  202126.625
-12716.750  154489.750
166909.250  178253.500
187431.250  49856.875
226998.625  9871.500
153967.625  -35840.750
158228.750  -95638.500
83484.500  -147172.750
-30137.875  -189899.500
-74107.250  -129598.625
-153012.500  -115597.625
-164146.250  -77986.875
-178519.625  43551.375
-215299.125  152198.250
-119074.375  192957.500
10790.750  145526.125
35042.500  205578.875
85631.125  79382.500
226237.125  58332.125
171439.375  48978.250
110465.125  -52503.750
142637.750  -47596.500
95347.875  -100437.250
-36532.875  -190299.000
-75631.625  -127759.000
-163799.250  -130065.250
-160511.750  -68216.125
-157807.250  70962.000
-168557.625  76738.375
-141318.250  129849.625
-71655.000  125947.000
59387.125  157146.375
94458.500  143428.500
153607.125  48662.250
165812.625  47484.875
181320.500  -82265.625
184151.125  -66712.500
88879.500  -152388.875
1922.125  -151401.125
-57699.000  -111270.625
-113089.250  -141774.875
-231807.750  -71774.875
-176203.250  -18096.375
-71539.125  149165.750
-39786.625  107730.375
-32219.375  152840.750
92939.250  170085.750
134634.750  110988.375
196379.750  63003.375
140652.875  14663.125
137691.625  -91200.125
97357.375  -125420.875
14907.500  -191247.000
-37793.625  -180350.375
-150105.750  -152148.625
-166642.250  -72982.875
-203104.125  -64785.250
-113367.125  50381.375
-152878.875  123202.125
-39767.000  140176.000
27820.250  162699.500
25262.625  159454.250
114937.375  180657.000
181590.750  12820.500
144156.625  -34235.250
129752.750  -105095.750
43414.375  -127849.375
-3502.000  -173068.750
-31407.000  -149875.250
-40472.125  -136391.500
-138103.250  -54690.500
-134511.250  -26162.875
-122532.875  28938.500
-123784.250  20996.375
-50637.500  173608.125
29958.625  179698.500
42219.125  190400.000
76652.500  158437.750
120483.000  57614.625
201625.125  -20537.875
183273.000  -115163.500
117282.750  -101834.250
35192.125  -184631.250
-5492.875  -124075.875
-64950.250  -88517.125
-130997.250  -122832.125
-90789.250  298.375
-193988.750  -14879.000
-94996.125  91813.875
-115871.250  155614.500
-32304.000  86347.250
93438.500  160630.500
172883.250  144983.250
99159.625  -10093.000
132260.375  -24980.375
175164.875  -60478.500
66378.375  -121239.375
27881.625  -134706.125
-43685.250  -136831.000
-95980.750  -135770.250
-152444.250  -105639.125
-173266.375  -72082.500
-124924.000  85734.625
-91937.125  89319.125
-59735.625  96323.875
-20429.250  122561.375
81763.875  92735.000
60844.125  102751.750
196388.625  46894.250
214854.250  -46737.750
151083.125  -94062.125
57310.375  -131816.125
4888.625  -129361.250
-314.375  -151713.375
-119591.625  -128106.375
-99428.250  -100121.375
-110767.375  -39844.250
-143164.375  88189.750
-14128.500  143991.375
-56612.375  138323.500
9274.375  172832.750
34299.125  88432.000
143091.875  107175.375
152590.625  79309.625
200381.500  -26866.875
120013.875  -47437.750
96245.375  -131580.375
18147.250  -147013.750
16877.000  -119711.875
-126303.250  -92381.000
-155257.125  -46883.000
-157076.125  3612.875
-90760.125  58405.500
-141312.375  77820.500
-61222.250  158005.000
25529.625  107687.000
23122.125  112857.625
136569.000  97354.875
138839.875  42886.750
116775.000  -19643.875
100329.250  -137411.625
68510.625  -93161.250
60047.500  -161414.125
22427.000  -103930.500
-66920.125  -132661.125
-97912.875  -120271.875
-151513.125  42211.625
-135994.500  81217.250
-127076.875  105445.500
-85289.625  95033.250
-7462.750  175184.000
88885.250  123373.000
127282.375  105842.250
175843.750  -1124.750
145098.875  -38998.750
80507.125  -106423.000
87896.500  -151791.500
3741.375  -57794.625
1575.250  -134688.625
-141263.625  -119661.625
-132621.125  -43027.625
-100277.375  -22947.125
-131864.875  22300.000
-111133.875  78600.500
-100217.875  76693.875
-12191.625  135719.625
53032.000  142551.000
70342.500  59495.250
103492.375  -13123.500
201681.250  -59260.875
62361.625  -29082.500
124734.500  -65948.375
34674.000  -98877.125
3868.500  -106141.000
-90353.250  -101463.750
-171361.875  -53902.250
-66251.250  -19201.125
-128261.875  40280.625
-73228.750  93430.000
-87923.750  231371.500
-20094.750  125119.250
94007.000  139273.875
135397.750  62282.875
104163.750  66794.250
84883.500  -37966.125
162458.750  -62793.875
87265.125  -123398.125
36191.375  -141404.375
1957.375  -144143.875
-97141.875  -85174.125
-109315.000  -85376.250
-122998.750  1210.375
-147000.500  45605.500
-133442.500  126156.625
4933.250  108988.625
60645.125  169899.625
80475.500  156803.125
116249.375  85380.500
171496.000  7569.000
132789.875  -77860.875
125729.875  -67314.000
62993.375  -86445.125
41619.625  -191882.125
209.250  -155138.125
-97185.000  -51098.750
-76615.250  -45761.750
-153151.250  -8319.500
-65185.375  118613.625
-80323.375  135300.875
-84958.625  105111.375
90291.375  161703.000
142962.125  150612.000
66992.500  101768.250
98909.500  -43325.625
145745.375  -36412.375
104863.125  -42307.875
28074.500  -101981.875
47572.875  -162053.375
-37208.375  -130485.500
-129229.250  -91498.375
-84025.875  -119032.125
-132487.625  -13558.375
-88451.125  85712.250
-139371.250  124163.000
-51377.000  136036.625
64586.625  115980.125
68798.500  112092.500
159468.250  23814.500
99037.125  20341.125
123758.250  4137.875
79078.625  -102134.750
15017.375  -164508.000
42892.375  -169756.750
7349.375  -132047.250
-102547.500  -155546.875
-181910.875  34336.375
-101876.375  -16306.875
-83293.500  -15043.000
-112775.125  129186.375
-15133.125  158209.875
-13844.500  170698.375
69752.250  75670.875
114633.375  81904.875
141030.625  14023.500
84321.625  -47356.500
62209.375  -117183.250
33281.875  -128114.000
7391.250  -71308.875
-104479.750  -104857.125
-63395.500  -111131.750
-68928.625  -79836.875
-160743.000  19340.375
-117018.375  47176.250
-79360.625  138062.750
-209.125  174854.125
-179.625  142933.000
37967.875  98952.000
100225.125  103900.750
104072.750  11235.375
136278.000  -26893.375
18687.375  -106055.250
66392.625  -107609.125
-22671.625  -135815.750
-130539.250  -111490.250
-152536.250  -102416.625
-81877.125  -49479.625
-114006.125  3484.750
-102888.375  3926.500
-77760.125  176831.250
-68313.500  117118.625
35070.625  111251.000
50212.375  70776.250
110416.250  91693.750
135095.500  43935.375
136314.250  -27136.625
79557.000  -83210.250
116549.250  -67008.250
26974.500  -86253.750
-53178.250  -104545.250
-142832.125  -102369.625
-183132.625  -60440.875
-113653.750  21842.250
-147422.000  58992.500
25512.500  112480.875
5367.500  74929.500
25382.750  105826.125
64481.875  155901.000
129761.375  52116.375
117811.250  11241.625
130827.875  -30813.750
53226.875  -88151.000
34577.125  -107157.625
-48860.500  -85706.375
-19671.000  -114852.875
-84808.625  -55419.625
-123639.375  8799.125
-123135.875  73881.375
-86320.000  37262.750
-75311.000  106872.000
-26882.875  148145.000
39933.750  99380.750
68878.375  143362.500
129515.500  19372.375
98939.375  33732.875
80348.125  52106.250
90220.500  -79680.750
28403.875  -109863.875
-20029.000  -48309.625
-74989.750  -86044.625
-72754.250  -58794.625
-123003.875  17040.500
-63808.000  25656.625
-102972.625  115504.750
-50278.625  40633.875
-23732.625  54576.375
85771.875  85117.625
35517.875  106060.375
37952.000  84635.750
73024.625  9279.250
103000.125  6735.125
43946.625  -25830.875
29588.125  -103609.250
-47707.750  -87190.750
-58977.250  -90177.875
-70254.750  -5357.250
-161858.625  6022.750
-107371.250  16197.000
-3398.875  51856.500
-13509.000  92322.125
-50226.625  59523.750
5937.875  35478.250
61086.125  31303.625
102814.375  32885.125
50701.125  -31518.375
80553.375  -52035.125
66166.250  -114226.375
42334.250  -131353.375
-28638.625  -78608.750
-19422.000  -64531.375
-151517.875  4362.625
-59109.625  -48161.000
-53539.125  60682.625
-63641.000  42845.125
-71288.875  111542.250
16947.250  66324.250
19595.875  148246.375
1638.750  50080.125
85450.000  -46964.625
47507.125  -53965.875
46396.125  -79446.375
84103.250  -66080.125
13628.250  -105852.500
-74296.125  -90861.250
-6570.250  -21029.875
2473.250  -37094.375
-77345.875  -56761.375
-114740.125  30370.375
-56391.875  34265.125
-110206.000  112343.625
-4470.625  79543.375
46645.750  47285.375
83052.500  84261.375
89473.750  59822.125
46548.875  39876.375
80108.625  -63251.875
-2311.875  -75467.625
2403.875  -116149.250
15324.500  -76700.875
-55457.375  -74136.000
-64023.750  -22183.625
-37362.250  -52933.375
-12880.875  1880.125
-96433.875  82605.250
-15863.000  65393.250
