        $SEQPAR
        ECHOTIME= 0.1300000000000000
        DWELLTIME= 0.0001220000000000
        HZPPPM= 0.0000000000000000, 0.0002025255087268
        SEQ= ( 64 )<Singlepulse_31P>
        $END
        $NMID
        ID= '( 60 )<NADH_20mM>'
        FMTDAT= '%6.3f'
        TRAMP= 0.1100000000000000
        $END
-581270.094  -65511.531
-1917990.438  -188295.281
-1818445.250  -337579.188
-1774296.875  -458945.969
-1704492.406  -364961.781
-1801268.594  -488487.844
-1674039.062  -597386.188
-1657721.750  -603920.844
-1632898.969  -664347.094
-1637176.188  -767926.656
-1562404.031  -803842.781
-1552159.750  -836868.594
-1510528.844  -919836.281
-1426626.031  -952458.125
-1428649.906  -985883.906
-1360112.656  -1073315.812
-1278506.406  -1098287.656
-1269733.594  -1143061.281
-1196107.188  -1163596.406
-1153310.031  -1235895.000
-1082075.844  -1237430.750
-1014371.219  -1305989.469
-949186.906  -1298983.156
-871583.938  -1340286.562
-837782.438  -1386362.969
-785731.156  -1392580.594
-726011.156  -1412531.188
-647741.906  -1409228.250
-601798.844  -1433627.375
-513160.875  -1443388.938
-472281.406  -1446431.938
-421414.750  -1470453.625
-333308.406  -1482344.906
-288882.188  -1458719.406
-227375.531  -1450154.562
-137454.312  -1478227.125
-101951.531  -1460801.375
-46787.594  -1438981.938
37746.688  -1465215.500
69765.562  -1387452.312
155562.688  -1378324.188
209929.156  -1388067.750
221923.969  -1360225.469
265361.781  -1317197.062
371475.094  -1307065.594
418239.062  -1296017.375
467720.844  -1252021.781
522193.406  -1222359.062
554725.625  -1219071.469
612291.531  -1134530.469
665892.656  -1102545.844
705265.250  -1070943.000
704188.031  -1015358.281
777162.188  -1021883.469
809400.281  -960559.781
811329.562  -943343.812
892842.781  -855805.969
854245.594  -816314.438
921568.719  -765538.812
911627.031  -716463.719
952443.906  -685819.750
973539.062  -641952.531
981603.438  -563415.781
998203.875  -537502.656
981245.031  -489143.500
1055498.750  -451767.312
1064289.125  -366677.000
1047422.250  -351644.688
1028047.781  -274615.250
1086680.938  -226605.688
1081097.688  -171736.969
1065589.188  -161569.000
1054158.719  -117970.875
1048767.438  -78893.562
1030964.562  -3161.156
1030700.875  42788.000
1046523.562  103337.281
1047188.438  152461.781
987258.656  153799.375
995604.000  210524.281
980492.469  244038.969
984277.281  294974.875
937110.375  340566.781
911032.219  357872.750
893122.125  414017.031
908752.312  435243.531
869129.500  476891.125
842283.031  500415.156
809900.844  574256.969
773117.375  570459.281
745533.688  596994.062
707169.969  639742.625
669288.656  666943.438
644897.000  683608.125
642216.844  686078.156
579909.281  733908.656
560612.031  729980.125
533825.875  778166.906
478788.875  824456.969
429169.281  805805.844
419645.719  795146.969
370883.656  810231.375
349808.000  813366.156
335687.969  841240.312
288485.312  866356.719
244820.656  885611.188
193233.406  880864.281
182018.312  891885.844
114561.781  876709.969
108361.125  892637.219
60914.250  886350.719
35203.781  882253.938
425.469  861264.062
-78682.219  841293.625
-108000.812  856785.719
-126374.500  846716.344
-121495.375  835559.188
-185133.000  853069.125
-229039.969  863346.719
-250293.656  852511.844
-267582.125  826495.031
-319151.000  803881.125
-356940.250  784902.750
-397535.844  762494.344
-390082.844  723371.719
-441981.719  702171.469
-457197.906  713459.750
-481708.062  673368.188
-549547.562  625042.531
-519151.312  630428.688
-561360.719  590651.625
-598294.750  561626.094
-607420.562  542658.500
-619847.969  530002.938
-608213.750  488278.469
-667799.875  458541.906
-672914.562  426308.031
-704055.562  418593.750
-727691.875  366227.500
-714864.625  336246.375
-754325.688  298894.656
-716956.906  275618.719
-762457.875  231007.250
-764386.250  222727.344
-774846.562  174536.188
-765282.781  150864.969
-747726.094  114290.406
-780798.250  58915.969
-770733.844  57150.656
-795469.156  45018.344
-766572.375  -46951.156
-760376.406  -82326.656
-766173.906  -93875.688
-765105.500  -116003.750
-734351.969  -172916.938
-727807.500  -185465.531
-721181.625  -242431.844
-733062.656  -245417.062
-714333.312  -276067.625
-722053.156  -293763.781
-684109.156  -321242.969
-667246.250  -356385.781
-664652.125  -408257.875
-611362.500  -409597.000
-612666.719  -432746.188
-561803.562  -459726.531
-578937.594  -487614.250
-551448.906  -512011.438
-513258.938  -511637.969
-491977.469  -556627.438
-478303.281  -561426.406
-434193.375  -600991.281
-419824.781  -610385.375
-398907.688  -635512.469
-353800.438  -644706.750
-343982.625  -632156.219
-302545.312  -666418.469
-286335.188  -664670.719
-251490.062  -698383.625
-192902.094  -688263.656
-172696.688  -686582.250
-118799.531  -710895.875
-109733.594  -704618.031
-91090.125  -706718.750
-56977.562  -717237.594
-11115.969  -741664.594
940.500  -707428.844
46255.156  -698006.438
74107.281  -701049.219
103926.188  -701206.406
134192.188  -679862.938
131726.344  -693767.938
198726.719  -671249.906
226471.000  -684107.812
247559.156  -645757.125
266652.594  -646596.250
295945.250  -647782.438
307555.125  -618824.062
344109.000  -587023.438
362112.250  -557416.219
370135.312  -561615.938
405155.656  -539615.156
428468.656  -526443.344
476566.719  -455261.844
480862.094  -470049.188
503217.656  -482201.719
500008.938  -423313.625
547529.500  -405288.344
535515.688  -414170.250
570357.938  -356363.156
573603.312  -316317.312
586213.812  -298259.344
613633.031  -301103.344
652906.500  -277611.469
606008.750  -222328.344
611893.656  -229519.000
634762.844  -183030.406
625690.062  -133927.469
655704.188  -88178.281
616597.406  -81023.781
683327.125  -81421.594
657618.188  -71702.562
638305.562  -16139.094
663490.219  31772.688
643665.438  54501.938
621157.750  121853.000
615444.062  76593.188
660593.000  131304.406
632568.188  145627.188
587467.094  193238.531
585330.625  206282.906
584677.750  208891.625
548282.156  243666.781
568382.156  272016.406
577000.031  315479.844
518684.750  343804.469
523904.219  338733.656
500692.531  390761.875
481957.750  369603.125
476337.406  416014.438
423879.094  450212.750
426407.125  416034.969
416130.469  470584.469
375143.812  469800.188
339636.469  488757.094
311528.562  508020.125
337813.781  506323.406
322370.562  533016.188
279762.156  543982.375
247433.625  527627.281
241010.781  557690.375
167068.188  594493.969
164939.656  579548.000
155745.406  607109.906
102211.656  601960.812
119462.125  613787.656
64271.344  610235.938
31981.281  629353.469
26482.031  604498.094
-16200.844  590916.750
-26332.875  614514.281
-62753.344  593947.781
-81124.531  586995.719
-136584.281  579662.406
-139487.000  583323.344
-151547.031  540221.469
-210173.250  549091.031
-202585.000  551764.781
-242323.250  515887.094
-246507.625  506975.906
-278346.688  511941.969
-268935.469  505290.719
-321277.781  470694.656
-342416.344  467994.094
-328414.125  471196.594
-369969.406  458135.656
-389627.094  419272.875
-430883.375  438103.156
-443670.062  359465.500
-447602.156  400228.656
-441014.062  335852.719
-514996.000  344718.719
-465226.188  333732.344
-506883.062  319575.188
-509254.938  258946.781
-519230.781  207086.219
-534948.812  195979.500
-545849.938  198866.688
-529141.125  171132.750
-559101.281  122280.438
-549858.281  137109.000
-542721.500  81312.875
-584434.594  52664.500
-556292.469  41400.406
-546825.281  35234.438
-549765.125  22474.938
-561081.594  -53048.375
-521797.062  -12377.156
-575920.812  -48307.625
-537503.406  -87566.000
-508284.000  -110344.656
-568031.688  -127512.562
-544367.688  -163869.594
-543166.875  -165731.938
-529158.250  -183473.188
-464729.875  -223784.656
-484659.500  -237895.281
-507111.375  -292376.031
-432138.750  -292847.281
-457463.531  -293415.219
-463040.500  -312404.906
-425438.219  -353351.656
-419397.062  -358711.438
-378140.500  -353815.125
-357868.469  -401429.562
-331083.375  -415061.219
-340527.469  -425197.906
-331451.219  -417914.375
-306180.812  -458024.688
-259407.469  -447108.156
-244208.844  -488055.281
-225144.125  -505159.875
-188319.969  -529296.375
-174303.438  -510610.312
-183628.844  -475947.781
-131061.781  -512319.312
-137789.500  -495677.219
-83568.438  -500746.812
-59011.969  -511781.562
-73781.688  -527380.219
-40226.938  -509177.469
-8054.719  -495119.438
1172.656  -505175.250
22083.281  -535283.188
55174.031  -501249.781
62021.969  -509512.625
100262.406  -519762.469
115488.844  -493679.875
142342.812  -469102.125
159017.125  -505650.969
197410.438  -483638.750
185649.938  -447780.094
218225.938  -473897.469
257140.562  -426821.812
225060.906  -437403.969
259769.094  -438719.250
301321.156  -406288.469
295990.844  -395426.781
315414.688  -390833.156
300389.938  -395407.094
330644.656  -350810.656
376771.719  -362787.688
389345.531  -321113.000
378450.406  -299598.625
391007.625  -279112.062
435618.438  -263773.688
425721.375  -256563.406
383050.000  -258580.750
445454.531  -247297.250
442860.062  -184200.250
435438.969  -181686.031
448623.812  -135364.750
458719.156  -159766.250
437899.875  -146523.875
469489.125  -128680.906
450703.344  -104294.938
468139.438  -102623.031
469571.156  -33512.875
445049.094  -2882.875
452030.844  -15334.969
458846.438  18210.344
449173.406  -10349.500
440632.750  48389.875
409645.500  61065.938
442573.469  100898.875
383407.719  106045.000
433670.312  154071.688
456891.469  144090.969
399527.188  147681.688
404404.781  169326.094
374953.438  188927.562
352454.125  198229.281
395266.656  183885.781
339031.188  221294.000
351530.875  222430.719
340951.750  282795.688
312576.250  260241.562
298769.281  251713.625
287982.188  249292.781
291099.219  295308.750
273063.844  314475.906
263256.312  296246.094
262789.062  312755.812
231265.719  328034.438
213306.906  305037.062
201643.875  337167.938
192379.250  322962.219
142357.250  339876.469
107634.000  324776.062
115446.938  339471.500
104473.594  330505.062
86236.781  350843.062
71894.312  368620.375
