        $SEQPAR
        ECHOTIME= 0.1300000000000000
        DWELLTIME= 0.0001220000000000
        HZPPPM= 0.0000000000000000, 0.0002025255087268
        SEQ= ( 64 )<Singlepulse_31P>
        $END
        $NMID
        ID= '( 60 )<NADH_20mM>'
        FMTDAT= '%6.3f'
        TRAMP= 0.1100000000000000
        $END
-578168.781  -46707.281
-1848714.688  -121068.312
-1719083.500  -248374.656
-1711317.812  -359586.812
-1663488.250  -281526.750
-1770441.812  -411208.406
-1637723.094  -527532.250
-1610073.000  -533869.531
-1589948.812  -579422.375
-1573062.281  -680001.062
-1501986.062  -716145.031
-1543674.750  -714765.625
-1462667.938  -807106.219
-1440275.406  -817875.438
-1376739.031  -876683.062
-1383063.125  -919720.969
-1316603.531  -982440.062
-1237549.625  -1061607.844
-1215254.938  -1053220.812
-1188808.844  -1106102.125
-1121897.281  -1123551.000
-1063687.531  -1166550.656
-1025992.469  -1156305.344
-961520.031  -1235286.312
-942293.875  -1256261.469
-833715.812  -1260441.781
-775155.844  -1298404.031
-741795.688  -1316824.031
-683270.594  -1328140.094
-621512.750  -1352380.281
-548264.219  -1343502.312
-523660.656  -1351141.188
-424475.156  -1361224.031
-406541.625  -1359173.875
-337980.031  -1360581.500
-275878.844  -1389154.719
-243144.312  -1369448.312
-187040.938  -1371196.312
-170202.406  -1375021.656
-50069.812  -1356069.562
-27807.156  -1322490.406
27267.812  -1364714.656
81996.781  -1281063.094
106139.031  -1276238.031
167167.531  -1265951.344
234487.156  -1272651.531
258875.906  -1237752.250
336348.688  -1190303.656
396479.094  -1177450.312
411918.000  -1156543.406
432170.625  -1127250.281
521962.969  -1070800.438
546658.438  -1052900.906
586244.500  -1026113.344
626371.344  -1015081.500
640556.625  -963995.281
673859.219  -941454.625
695288.688  -896100.469
754409.531  -867855.438
771560.844  -804571.312
797662.688  -788030.406
820545.344  -751884.500
847518.281  -702064.969
849984.500  -639537.625
886693.375  -634055.562
904717.938  -571820.844
904784.625  -546054.281
939227.688  -513191.906
946567.906  -449301.281
929796.156  -402549.938
938120.312  -373543.438
940430.281  -345188.281
956106.875  -302616.625
992635.438  -257632.531
995210.125  -201413.875
968953.906  -129393.375
973782.312  -148881.219
947250.719  -96275.156
986431.375  -56697.438
955258.094  -9595.781
954870.438  26604.469
958624.625  80615.406
945333.156  117028.375
911946.281  130362.562
916656.438  200627.156
914384.375  224760.875
885618.219  252178.531
857080.656  293808.281
853573.969  320765.156
869733.688  321986.156
820637.438  396182.688
808468.250  406169.219
790195.719  441002.562
752000.812  463599.125
729084.281  515039.594
718532.281  534418.219
678423.531  553417.156
679583.531  568109.656
635950.156  600870.938
638100.969  645202.562
595862.719  629684.062
559988.594  681033.094
541227.594  687333.438
486786.750  675038.969
458179.219  708490.875
465530.281  718942.188
402568.906  744006.781
409567.938  741639.531
342766.219  762789.531
319494.688  743804.750
261711.031  812292.125
292804.281  771620.844
204973.688  811744.375
216743.219  799723.375
146009.500  791047.938
101039.688  836332.281
102639.594  817225.219
74307.750  804660.344
67150.062  800941.469
-18929.031  799585.000
-23181.656  788735.906
-44305.250  782572.125
-74937.688  804484.875
-135983.469  806330.844
-138115.375  784366.156
-169145.219  746988.469
-223216.250  741936.188
-220699.031  733579.844
-254087.750  718378.719
-301218.375  727700.188
-334775.531  704783.719
-319195.781  688278.250
-361398.781  678329.906
-435483.312  681991.125
-405960.938  633999.656
-452932.125  621228.062
-490675.750  614427.438
-486708.469  583351.969
-503067.125  574355.656
-522827.938  551454.281
-542492.406  502855.688
-569625.312  522919.875
-592199.125  447998.438
-619699.719  460592.594
-633879.688  416604.625
-630323.094  394718.469
-635698.031  353816.844
-665198.188  336745.688
-684629.438  302029.031
-682450.094  276881.781
-694174.094  260647.469
-707748.594  226163.000
-706928.938  201849.094
-726137.500  164260.000
-710380.000  150359.250
-736475.875  77546.375
-717025.219  98176.219
-729895.906  35185.250
-757599.406  14945.438
-726525.344  -46481.125
-703776.688  -39723.438
-728072.188  -54760.375
-701918.750  -86105.375
-691238.188  -136272.312
-650499.906  -149983.844
-707167.625  -146675.188
-700912.281  -200772.938
-620899.938  -231500.656
-623608.719  -251883.750
-642900.156  -292396.812
-620984.594  -312899.938
-602047.344  -331075.656
-568144.625  -352236.812
-591991.656  -380297.188
-527999.531  -394408.406
-538495.625  -436282.625
-526410.406  -418857.188
-481136.125  -450645.188
-498666.781  -477835.438
-452858.438  -477094.469
-446659.594  -481120.656
-401411.781  -521947.188
-408241.812  -554891.531
-398314.156  -587860.000
-358742.094  -582098.594
-303044.125  -599012.875
-293385.156  -613487.375
-328253.219  -618177.062
-241009.688  -605333.844
-238895.812  -608735.719
-194158.781  -605669.625
-145360.594  -628494.438
-139991.062  -651041.500
-133859.344  -636103.656
-81360.906  -649483.875
-67304.906  -632506.500
-53334.469  -653333.344
6124.812  -664661.062
-5162.312  -628545.125
46027.781  -640637.656
74058.844  -631027.531
105707.281  -647537.125
122748.062  -627589.719
166095.188  -606581.156
157253.406  -588449.938
187241.062  -611352.094
236370.500  -580096.219
241960.125  -555918.031
265194.625  -552321.906
247955.406  -544757.344
332617.844  -547256.844
304691.969  -513625.406
363038.750  -519810.875
367162.344  -486965.125
431177.375  -493501.281
393802.312  -469621.469
438009.781  -454282.625
406757.000  -413258.594
440134.625  -419952.438
508543.062  -367406.875
505555.094  -393130.469
512959.188  -332893.781
527539.531  -287878.562
534008.406  -329311.156
502312.500  -286796.094
529144.188  -255238.969
520044.000  -250226.531
564840.000  -214972.844
587002.594  -164566.969
591000.844  -163242.375
578876.281  -138515.812
591731.719  -94133.875
569700.781  -107132.500
596046.469  -90216.719
590642.812  -56025.656
553415.781  -19833.844
568503.594  -10601.281
586040.688  35508.125
564110.000  79920.562
590682.344  77174.812
601570.156  109077.156
584613.500  119734.906
563753.281  132180.688
557284.188  158854.312
553388.125  217248.875
551023.125  174761.188
565263.688  216959.938
515497.000  275633.812
487444.938  221179.656
504640.844  267839.219
492492.688  296915.156
467758.594  297948.562
472369.250  331509.938
425362.594  338605.625
424692.969  372388.656
421866.562  411414.688
383625.688  352561.125
369183.469  422837.031
339004.656  405680.438
320064.188  442359.594
313500.094  436191.844
279825.062  452489.750
281210.688  509323.406
257004.281  500424.062
220928.844  483468.281
229757.375  503267.031
203548.656  516443.531
170995.781  552056.781
116040.281  502356.188
120270.812  572464.906
86843.375  543005.031
78837.188  557579.406
43452.562  562957.656
37856.625  550085.500
24655.750  552228.844
-33506.656  540134.375
-38215.781  528213.906
-31022.719  545196.562
-70687.844  566633.281
-70090.406  532015.906
-97578.781  513423.906
-171326.500  517691.656
-159939.875  502010.781
-167117.562  506522.281
-190695.625  516037.219
-222811.938  490194.938
-250103.656  480142.188
-251538.344  480971.656
-255854.844  453446.406
-283580.719  432410.844
-325563.031  422254.531
-296704.594  430179.656
-347773.750  406020.281
-365802.812  403356.250
-371892.531  380114.469
-388977.531  358014.344
-369751.156  341505.094
-411990.656  297120.969
-441181.781  328835.094
-424783.688  264160.219
-441731.438  302322.531
-461892.031  273681.094
-508844.750  208865.125
-512991.188  202454.875
-472123.906  209795.375
-477117.250  181479.250
-462343.844  164955.406
-477520.719  142073.062
-504284.375  112027.406
-478533.000  66141.250
-506930.438  46109.375
-539723.750  63290.312
-515385.469  54504.438
-491466.500  -1785.531
-510227.062  -21135.969
-513823.156  -41389.750
-482535.031  -69620.188
-503516.562  -105933.531
-492589.188  -121319.812
-474108.156  -118532.062
-476022.156  -168360.969
-450777.906  -145666.438
-473642.656  -185621.781
-456112.656  -213819.562
-483552.438  -219965.719
-419298.438  -235653.312
-413487.719  -249149.438
-399222.469  -260541.375
-362526.281  -278354.875
-388938.906  -305028.656
-361306.594  -309418.312
-334876.531  -329642.906
-372392.312  -327404.344
-301076.875  -349511.000
-315622.406  -363058.125
-296367.875  -380189.938
-280557.625  -398001.812
-304993.406  -404527.719
-248333.250  -407652.844
-216045.781  -410400.844
-209909.031  -420221.719
-213306.469  -441023.875
-167869.031  -425529.406
-168088.312  -457657.031
-161562.719  -451792.688
-114812.469  -449862.344
-117132.656  -453942.719
-96540.281  -463668.094
-58179.000  -490377.312
-66145.031  -473215.125
-45901.812  -457985.875
-5549.500  -448335.875
-10719.094  -427488.250
21480.781  -467110.750
39266.188  -424380.000
34386.281  -465043.281
64391.844  -483066.156
77095.906  -440786.594
112052.344  -448765.719
76663.594  -430587.438
129963.250  -422658.000
150763.875  -435861.531
136184.156  -408410.375
171531.000  -447451.688
201523.406  -393848.031
174160.656  -404712.781
219141.344  -393044.625
238395.750  -352586.312
240947.656  -357450.688
256935.844  -342074.062
254225.969  -356106.375
293980.438  -320866.875
298484.438  -298633.156
305809.344  -278599.938
306130.438  -298403.125
311827.469  -280811.719
333408.938  -239950.812
320321.750  -250781.562
328486.000  -221137.188
330764.438  -208107.781
363299.969  -199519.594
322827.969  -173776.062
365169.312  -160024.875
351485.219  -146217.375
368343.281  -145998.438
366280.562  -98452.062
341875.875  -120736.969
322330.375  -106523.344
353316.188  -90120.094
355439.562  -49343.531
356740.531  -53119.156
395170.219  -5747.344
336776.781  -10491.500
350407.344  -21790.031
337792.500  10145.562
338043.312  46270.844
331619.281  53849.344
327216.312  43053.656
314835.781  50752.375
317848.188  60389.594
335911.062  87129.094
314958.406  90347.344
304599.688  150569.031
