        $SEQPAR
        ECHOTIME= 0.1300000000000000
        DWELLTIME= 0.0001220000000000
        HZPPPM= 0.0000000000000000, 0.0002025255087268
        SEQ= ( 64 )<Singlepulse_31P>
        $END
        $NMID
        ID= '( 60 )<NADH_20mM>'
        FMTDAT= '%6.3f'
        TRAMP= 0.1100000000000000
        $END
-567316.094  -151932.500
-1679999.750  -391106.875
-1612798.625  -516880.000
-1600877.656  -697182.000
-1417180.906  -635405.312
-1475455.281  -742858.781
-1382426.500  -846777.344
-1320355.125  -879793.781
-1296160.875  -908467.969
-1289004.094  -1072008.531
-1144399.594  -1100192.094
-1120362.406  -1152183.125
-1035318.625  -1188497.969
-982388.531  -1260659.938
-869644.594  -1322387.594
-793895.219  -1346114.000
-710057.938  -1378094.469
-664398.844  -1414058.438
-572004.875  -1429111.406
-477403.188  -1469740.594
-366609.469  -1464554.656
-302645.312  -1461972.969
-178046.906  -1491765.688
-138366.875  -1454801.781
-43885.531  -1480164.906
18527.906  -1478864.562
145131.656  -1450548.219
206929.188  -1421059.125
290500.625  -1415952.500
349416.781  -1380798.750
469474.312  -1314559.531
524446.281  -1314972.344
577224.875  -1275779.812
655344.219  -1231479.625
712792.688  -1134149.656
811294.156  -1112213.656
825124.281  -1026881.344
891345.562  -970565.781
952491.219  -923714.750
955384.219  -858110.406
988729.625  -798217.812
1077501.344  -729386.594
1083797.844  -671003.250
1109048.188  -579553.594
1110139.000  -523555.312
1134561.969  -429078.094
1129281.438  -380879.094
1207623.000  -340224.500
1174840.875  -230819.031
1189879.000  -159184.406
1186155.875  -75938.156
1153301.406  16933.625
1175417.219  53469.594
1164037.938  129112.719
1121060.969  178695.688
1106644.531  269413.719
1069556.719  310564.156
1031269.875  411613.344
1032863.688  452432.094
981471.906  494685.000
945158.156  569792.062
871314.844  600337.781
826994.688  641203.312
813174.438  683420.000
752142.844  690977.781
709763.469  780855.312
616909.844  792524.625
587342.562  835371.969
540068.719  871646.000
477059.625  905642.938
416836.125  908951.906
338010.000  920186.781
287351.250  943498.594
229365.469  931382.531
169997.031  927674.125
126883.656  966249.969
66173.688  953623.438
4238.594  931661.562
-76430.875  949452.688
-105802.844  897467.438
-167199.000  925666.000
-224766.594  904529.875
-253241.906  880561.000
-316813.750  891500.812
-362073.188  844075.156
-416345.719  798612.906
-460262.656  812376.344
-519368.562  732661.406
-560849.156  717322.969
-586861.719  653856.281
-611032.688  615262.719
-640378.531  587578.812
-704348.500  554238.781
-703453.125  510953.000
-716419.906  468682.531
-747902.906  395294.094
-783723.969  378802.375
-810637.906  325046.719
-821959.625  280949.125
-852339.281  193714.531
-826114.312  166161.531
-828427.219  152230.906
-866277.000  99274.250
-860307.250  34333.219
-822214.031  -40002.906
-817008.875  -91301.312
-825175.656  -100734.844
-817113.531  -175677.344
-820305.625  -202201.812
-773707.625  -267026.438
-774358.594  -309395.969
-737222.969  -342789.375
-710863.156  -381954.719
-691814.562  -423893.750
-669796.812  -454864.594
-623053.062  -513742.688
-578420.531  -528486.188
-543105.125  -572296.875
-521775.125  -586329.031
-513984.094  -626291.938
-439566.625  -677522.906
-397131.812  -669991.156
-346772.094  -697937.594
-339231.281  -695500.656
-285406.875  -731670.750
-237233.531  -750623.375
-184117.625  -755119.469
-146432.906  -762713.188
-89508.812  -750312.562
-48943.500  -741548.812
-44761.312  -766065.719
25243.594  -777378.656
87809.750  -774462.031
129944.000  -779609.719
174346.406  -726084.188
194978.406  -734302.750
255653.781  -742014.438
281348.594  -693374.656
327489.188  -686327.250
377177.656  -657831.312
389259.375  -614612.156
432356.156  -614629.625
451742.562  -597540.844
500503.219  -537556.000
545490.875  -517696.031
561706.312  -454271.031
580001.406  -436257.906
632814.219  -413059.594
624336.344  -341866.375
659695.625  -330673.344
664246.625  -313374.000
677336.594  -229226.344
686944.438  -218633.281
678556.000  -153879.062
702704.250  -135264.375
738131.938  -57251.875
723799.469  -38735.594
717573.188  16071.406
687886.969  87694.812
703708.750  99643.188
707315.312  144151.312
701203.406  169952.688
677981.250  233787.125
647789.031  231122.250
620115.250  279388.219
624626.594  322208.219
614861.094  384092.688
569345.688  421509.031
552413.125  453472.125
517408.781  476300.219
469333.656  499696.656
419872.844  490023.969
410589.281  541990.125
383920.875  570187.938
337482.344  611779.219
292885.562  602909.781
250792.250  620361.031
214593.562  646573.375
167658.312  630396.250
153235.250  660245.688
112652.938  676296.281
87381.188  644524.844
14291.438  684451.562
-25022.125  659106.594
-50580.938  690395.406
-88378.062  655174.750
-128505.406  639590.344
-166900.656  656801.125
-200855.344  626859.969
-224578.781  619525.531
-295112.250  611821.625
-307159.375  545814.406
-358640.031  539306.562
-394600.906  529153.125
-383899.969  518273.281
-455300.781  494870.938
-505330.469  448809.656
-497804.938  435049.062
-521868.156  372301.125
-544271.750  339203.781
-538575.781  306476.156
-606501.938  287552.375
-591566.500  249485.312
-609565.438  255082.500
-600554.469  174777.719
-632867.969  109935.406
-616207.500  82510.281
-622976.562  83655.281
-636039.875  -5903.125
-598089.844  -19037.969
-605911.156  -58014.469
-613314.031  -74494.375
-615101.594  -135454.219
-618016.125  -175052.375
-585286.750  -180368.812
-573882.812  -220644.312
-543813.406  -295647.906
-518499.031  -293681.469
-525910.594  -326261.781
-514197.656  -353009.938
-462790.375  -380063.156
-444142.719  -441453.125
-412243.125  -460854.031
-363476.344  -449121.531
-371435.500  -453064.312
-357188.906  -512072.094
-284085.500  -537661.781
-276308.250  -526955.188
-230320.312  -563909.969
-182186.688  -541493.375
-169968.312  -578974.969
-105029.125  -575198.031
-78667.906  -558819.188
-73791.656  -598323.938
-17178.125  -573587.031
24863.531  -584578.719
54215.406  -565014.812
102185.906  -558152.188
113599.250  -556985.906
166422.938  -544851.969
187483.000  -530708.938
224254.031  -548560.469
259531.156  -525050.281
282623.594  -501039.031
308210.031  -494811.375
354333.312  -458566.375
360281.562  -415285.281
410427.344  -444301.344
420256.281  -388753.062
442528.406  -363891.438
474216.938  -345174.406
455107.688  -319372.781
480492.094  -278651.812
479071.906  -258761.344
516407.250  -198572.281
536156.406  -216678.250
542735.594  -166374.031
546771.719  -105616.375
546920.969  -97945.500
544852.375  -42142.281
541989.031  -41494.906
571687.656  30858.719
547811.875  57557.219
506843.344  85451.625
541829.938  152951.500
533365.812  186819.062
519864.750  165698.844
489101.844  213011.531
495843.781  246838.906
463593.688  283271.469
479224.438  285744.469
450100.312  291302.344
413382.969  353231.656
415561.750  362033.938
341446.594  421747.000
356303.531  430034.406
319489.031  441836.344
313667.750  448965.250
228476.031  457999.344
247078.438  503257.656
213137.750  499298.312
159961.500  499262.969
139697.344  512142.781
97088.125  533452.406
85982.469  537560.344
69501.531  559341.344
3651.938  538835.281
7605.250  542644.375
-36788.062  492199.000
-68530.188  509947.469
-76604.219  538812.031
-131901.156  495892.750
-179324.250  486618.781
-209346.219  457111.719
-229825.469  468004.594
-268987.844  460637.188
-321693.656  434456.469
-323204.500  428913.688
-317391.812  431324.094
-373578.219  367679.938
-366051.812  337280.250
-408527.719  298738.656
-448683.000  275195.250
-445755.344  255550.406
-452713.406  236326.219
-464819.406  245525.000
-445639.406  213453.281
-516522.719  189672.812
-480272.281  120635.750
-510181.500  77457.094
-508354.406  70421.000
-512755.344  8499.156
-510203.844  32152.688
-474515.688  -38935.094
-497806.250  -40154.031
-536074.031  -93455.812
-492605.594  -129764.219
-514379.000  -152499.031
-475695.469  -160980.938
-444301.062  -195364.406
-452143.844  -229100.500
-423988.688  -253316.719
-402758.312  -285153.875
-380172.875  -293195.156
-367200.438  -345734.406
-342028.688  -327581.125
-338907.688  -366862.406
-304925.000  -391930.031
-249677.312  -416500.750
-249509.000  -413496.750
-241724.000  -408541.000
-205346.750  -440426.344
-169469.781  -468704.781
-133976.156  -475890.625
-120219.500  -452088.844
-107550.844  -482019.531
-68794.469  -473315.219
-42309.156  -463864.594
2278.531  -474602.562
-2288.062  -488376.906
73504.000  -477044.156
61300.438  -481579.375
92034.625  -476457.562
150767.562  -470460.938
138472.500  -442845.000
191000.344  -425237.188
198862.781  -400881.938
270979.031  -401962.438
273838.594  -371683.219
262598.500  -390559.156
306258.344  -345661.469
355135.906  -333984.500
312680.594  -290836.031
343887.344  -295360.469
356130.750  -263150.938
354379.281  -258437.031
390873.344  -215960.875
368856.344  -150824.656
396593.031  -163090.250
436343.188  -162234.719
451946.688  -122344.312
425618.562  -106882.031
442838.406  -83937.094
411747.969  -46466.844
451281.219  -30968.844
419089.719  8844.188
456701.562  2594.656
450344.812  40931.938
438528.938  59895.750
403313.906  110741.125
413300.438  117081.281
418846.562  131686.969
386320.000  178292.500
370413.469  189469.812
335821.875  196621.250
322171.312  203803.156
346664.531  245306.531
291929.438  265706.719
321016.000  271456.688
281763.188  301505.062
241727.875  288657.125
223776.969  336901.719
189435.094  333412.719
220326.688  343489.688
165507.219  353325.219
140985.812  355847.812
114998.438  344080.781
107538.750  352964.750
95173.781  370559.812
56130.969  378075.312
38282.844  346731.562
57034.531  386729.531
25606.469  373435.656
2474.219  343700.688
-55690.375  359663.094
-84902.125  330779.625
-92054.406  345811.281
-120674.438  332183.188
-107902.875  322482.562
-149620.969  301913.750
-203830.094  313527.000
-153636.562  317954.906
-209837.812  267379.156
-195346.562  306405.000
-215591.594  225741.031
