        $SEQPAR
        ECHOTIME= 0.1300000000000000
        DWELLTIME= 0.0001220000000000
        HZPPPM= 0.0000000000000000, 0.0002025255087268
        SEQ= ( 64 )<Singlepulse_31P>
        $END
        $NMID
        ID= '( 60 )<NADH_20mM>'
        FMTDAT= '%6.3f'
        TRAMP= 0.1100000000000000
        $END
-376007.844  4087.406
-1283317.156  34018.406
-1233264.375  -54124.531
-1181365.969  -91434.844
-1146929.344  26416.969
-1281998.000  -57874.312
-1128571.062  -95054.812
-1192244.000  -47774.094
-1212141.938  -45770.344
-1174455.781  -126843.812
-1104668.000  -86660.031
-1158892.312  -92322.188
-1144981.656  -137159.844
-1109406.312  -94910.938
-1116379.969  -74558.281
-1109102.844  -129380.938
-1102718.656  -149769.844
-1088452.281  -131920.656
-1077967.188  -147557.250
-1046619.000  -145297.812
-1022219.625  -172914.594
-1041988.688  -176686.469
-1030415.219  -172219.750
-1011619.750  -236689.656
-989799.031  -201271.406
-1012724.906  -209149.812
-1021561.906  -216780.875
-998936.656  -185477.375
-979700.844  -223927.750
-951113.312  -215158.000
-954290.062  -211090.344
-923136.281  -264358.812
-906019.125  -244134.906
-914094.844  -279566.500
-896816.906  -265789.188
-884220.750  -239409.344
-849116.906  -278177.188
-855258.250  -278480.344
-849273.906  -279528.906
-824851.438  -307828.312
-820537.688  -325801.938
-854098.812  -309367.031
-771375.156  -297002.406
-763678.125  -319873.438
-805033.531  -371683.219
-736506.188  -341409.438
-726153.094  -343325.406
-755715.781  -365934.688
-723398.406  -367137.688
-714546.406  -355836.000
-698536.656  -377871.781
-655061.719  -359764.250
-703806.938  -348637.219
-691623.281  -360662.750
-669287.656  -408932.625
-638472.281  -369342.281
-634957.125  -370429.344
-619977.188  -396201.531
-626525.531  -421330.406
-636150.219  -403236.781
-637416.781  -399065.625
-597542.938  -396693.844
-598691.125  -409004.500
-556203.656  -411155.906
-535437.469  -411946.688
-553850.781  -429515.562
-526867.031  -436060.156
-498172.906  -415461.594
-506028.844  -447587.188
-496774.406  -440214.500
-461126.094  -446139.438
-467844.875  -450555.719
-498781.906  -448957.906
-450605.656  -424617.781
-436842.312  -438923.781
-463305.625  -448473.906
-418276.969  -452074.062
-442359.094  -455736.250
-423644.594  -465959.062
-427588.375  -454813.625
-396993.156  -436714.469
-397868.938  -467522.344
-372566.406  -439827.969
-348463.750  -408253.125
-372277.375  -478372.125
-338972.188  -478122.406
-340337.031  -482715.781
-351464.281  -478113.281
-355094.812  -448379.094
-326870.469  -486040.906
-316600.156  -496726.281
-304775.406  -457346.906
-336382.938  -463336.562
-291804.906  -475503.750
-278686.750  -517671.719
-288837.938  -475378.969
-272872.062  -487196.844
-278326.656  -506971.250
-255619.375  -478685.594
-274710.750  -503345.250
-261247.062  -483231.000
-246314.812  -500518.312
-258895.406  -479725.062
-242799.312  -489333.188
-249927.406  -491311.969
-246232.438  -480030.094
-208951.938  -501995.219
-205005.469  -483155.500
-207703.750  -497933.219
-212881.781  -485557.250
-244061.000  -469445.625
-185891.312  -500622.125
-199114.375  -493836.156
-159415.469  -519032.781
-165443.188  -474992.188
-182902.594  -501524.062
-167291.594  -493823.250
-177860.281  -499440.000
-125322.062  -489073.406
-138397.188  -473682.594
-156870.344  -501926.656
-118832.062  -493248.406
-133331.094  -463078.875
-134275.719  -467286.750
-109612.938  -495009.625
-110040.375  -496441.219
-72127.344  -487380.344
-84520.250  -484205.219
-97978.188  -460211.500
-40025.688  -469366.406
-87492.312  -487036.688
-92831.250  -479311.656
-57032.438  -472365.656
-51243.906  -429061.562
-52898.719  -467719.344
-45542.625  -481634.250
-26626.719  -456085.875
-27850.531  -461313.312
-22263.500  -495262.312
-2424.000  -486786.781
-1577.531  -502569.875
-13524.844  -455161.219
8298.125  -474280.688
-28357.594  -482645.219
16880.531  -442110.969
-32505.688  -439075.562
22159.562  -435449.000
45327.688  -478478.719
21902.156  -468515.938
14884.062  -455745.375
34740.031  -465738.438
45993.812  -469182.750
34857.375  -447908.594
55397.188  -450780.719
58477.781  -435574.812
38939.781  -452233.438
87397.500  -428945.062
78696.062  -439287.594
79366.781  -428701.344
96245.781  -444159.094
87124.906  -444296.406
83076.594  -416448.094
88784.344  -448681.719
104169.500  -397400.375
94566.469  -457600.000
120800.531  -430850.625
120266.719  -430523.562
112231.500  -384950.469
126771.844  -393469.875
117850.250  -408357.656
131031.812  -406131.219
121861.875  -401782.438
185749.656  -422664.906
127358.844  -399209.625
179349.719  -404798.844
154290.406  -386587.719
176901.688  -366293.750
154224.750  -384238.812
168458.656  -390886.281
203425.688  -392853.250
178836.938  -369042.844
199561.875  -368403.594
193722.719  -376063.812
175068.219  -357147.500
206950.500  -380985.719
213180.875  -353772.469
186945.906  -355048.406
217733.156  -350032.312
234189.812  -347902.719
239982.344  -320295.500
221909.406  -331783.156
256403.750  -327702.562
239513.812  -316958.031
245371.312  -334341.406
218811.156  -305814.562
222786.875  -299842.656
232579.219  -305681.062
261384.281  -312564.594
241972.688  -280938.406
243226.844  -316925.719
280442.250  -298048.938
266563.062  -310373.250
255504.406  -297585.688
275061.594  -255286.969
268544.000  -264045.250
256516.562  -306699.719
278988.031  -278416.031
286792.969  -228537.312
292377.594  -278380.750
297257.062  -269794.562
288863.875  -267275.656
302499.531  -257626.562
286091.500  -242118.344
325822.156  -244202.750
314232.188  -243386.188
295816.781  -210390.375
280063.750  -221994.375
273019.188  -222371.312
306068.406  -225147.812
299839.531  -241556.062
310142.219  -222269.500
307318.281  -213697.375
328238.875  -205448.156
323111.125  -193001.906
304630.594  -175666.406
317070.812  -185253.188
336796.250  -157795.250
331701.281  -187872.594
325711.969  -156149.875
288651.375  -172131.531
317423.156  -172256.312
324851.781  -142539.156
353823.000  -175768.500
323475.594  -162379.438
306000.594  -169264.188
321618.594  -160460.438
304966.500  -151666.781
305879.875  -127164.938
351500.438  -114975.594
326706.094  -135714.688
349546.875  -117705.719
355615.156  -128543.469
333128.562  -94184.562
314002.094  -104343.469
308054.531  -126099.594
346567.062  -132162.469
337646.125  -109615.594
321137.500  -85133.219
325379.594  -116080.844
337679.031  -92387.938
352355.719  -52395.812
327587.812  -71128.844
321419.719  -87423.719
328557.031  -102933.281
312888.219  -62719.156
307422.656  -58522.375
340932.094  -52273.281
327076.406  -56379.750
335591.688  -47901.125
312177.469  -48413.156
351343.781  -40234.562
333105.500  -12789.312
333158.312  7336.469
314566.562  -37277.781
312740.594  -7548.375
334851.906  2986.625
332923.656  -7944.438
311497.688  14372.469
350975.781  15171.219
326089.750  31491.188
321036.875  14449.219
325591.281  -15028.062
326396.844  41414.250
335949.781  1721.719
329675.844  10269.219
323275.844  25376.375
351176.281  32975.000
318038.938  22484.781
312949.656  47341.719
328945.906  34539.469
322464.062  50182.531
311389.000  60912.875
316468.438  57041.281
324761.625  77557.219
312050.031  103461.594
310573.969  38569.094
291213.750  46700.938
331482.812  50063.656
317081.688  82096.688
291088.781  88004.094
291095.031  98402.562
327644.375  107312.969
311333.688  107182.375
288636.969  91457.281
283951.531  118871.531
288321.656  106062.531
296810.625  98823.781
250856.188  101784.062
298880.406  72279.938
301493.719  103468.344
286484.875  118649.312
271627.062  159025.375
302947.625  107767.188
302330.125  131588.188
279238.312  170766.812
298585.281  138611.719
285124.969  152078.688
263051.625  136586.312
283885.031  134365.156
262882.438  159341.750
248421.188  154062.188
246571.125  157900.156
257572.031  138570.625
260516.844  188150.875
247191.219  198021.562
256582.719  164593.844
296811.125  163689.531
277821.562  175824.125
231749.938  181871.438
235775.438  203394.062
208591.000  202411.250
221281.031  182111.812
241033.125  183492.812
215755.312  172636.562
227578.219  223710.812
218059.656  164569.375
222691.781  188784.594
213703.875  155025.969
207083.625  203576.438
196486.625  199955.750
199953.219  179505.688
185482.469  197565.188
205634.938  187415.000
197604.844  206031.750
202974.844  197342.531
165426.812  231752.500
177458.406  214157.469
189341.469  215827.156
162676.625  201129.531
158684.156  224907.531
187239.219  180230.438
199310.594  219504.438
135204.188  221422.812
175279.219  207113.438
183027.656  239037.781
159885.625  207872.156
176714.406  214964.625
163069.125  224515.344
140897.375  223677.219
131404.594  234788.938
146274.719  236385.812
140142.812  231905.625
130067.594  227901.125
106481.469  238438.844
125374.188  212199.719
131881.312  230208.969
99850.125  232599.344
113726.656  254425.875
98452.156  230786.781
106992.719  234580.375
100844.500  222379.844
114809.594  272376.094
99801.688  241601.219
121226.188  245046.844
119542.250  256648.375
137882.750  234496.219
108430.938  264634.969
105724.375  211489.531
75352.531  254090.188
51350.594  209759.438
75775.219  209805.062
89710.906  249802.688
93961.656  198779.375
51800.906  243220.875
52003.438  224595.688
57848.688  191048.250
63875.656  201862.000
75336.312  219732.250
79229.094  226986.719
52691.500  214369.812
43484.531  234293.594
67955.688  218221.219
52210.531  202854.375
44805.031  213198.562
38582.969  263091.125
42221.781  236780.500
61538.906  219426.125
51246.781  201463.156
69402.188  218565.312
2911.438  208363.469
15399.844  206611.969
33027.844  219738.531
18452.562  208835.656
9699.125  194538.000
-1918.344  191800.188
27057.469  185262.906
46214.656  186865.312
10754.469  193159.250
20284.000  192507.156
6893.719  197643.219
27762.438  192423.812
6079.906  194678.750
-15069.312  199278.781
40970.438  152535.750
24181.094  170044.719
-16211.031  196629.688
9054.312  162480.188
12551.594  178124.594
