        $SEQPAR
        ECHOTIME= 0.1300000000000000
        DWELLTIME= 0.0001220000000000
        HZPPPM= 0.0000000000000000, 0.0002025255087268
        SEQ= ( 64 )<Singlepulse_31P>
        $END
        $NMID
        ID= '( 60 )<NADH_20mM>'
        FMTDAT= '%6.3f'
        TRAMP= 0.1100000000000000
        $END
-620344.375  -95970.844
-1929327.844  -230550.844
-1815005.281  -393320.406
-1818528.906  -511171.906
-1657405.688  -472250.031
-1803521.375  -616842.656
-1684092.125  -704607.062
-1691995.750  -728814.562
-1645451.281  -765457.219
-1606840.688  -894503.062
-1542569.250  -911598.406
-1503159.375  -961646.219
-1445294.812  -1065543.469
-1364037.156  -1136571.906
-1307913.719  -1168610.969
-1278792.062  -1202862.406
-1192962.906  -1259293.219
-1150884.844  -1287267.188
-1057128.281  -1336508.562
-980510.438  -1352443.812
-929291.625  -1383408.031
-850906.375  -1433329.562
-774390.281  -1447831.406
-705194.250  -1482206.875
-657457.531  -1537222.250
-592916.406  -1510660.750
-540688.938  -1534118.812
-424775.531  -1567977.344
-371848.250  -1535758.844
-288964.469  -1561404.688
-209815.531  -1546745.531
-125426.875  -1544460.562
-68403.469  -1522028.531
-21056.312  -1526426.531
64831.031  -1508150.750
136620.250  -1479369.062
215420.000  -1459089.500
261981.500  -1439654.125
336724.938  -1418491.094
385247.594  -1385802.625
477249.781  -1335249.938
503052.250  -1336611.625
554088.625  -1297600.344
633001.625  -1245065.375
681383.531  -1215075.562
711322.000  -1157069.250
772129.344  -1111416.688
820259.125  -1085303.188
843408.281  -1023723.875
886971.750  -962125.906
969918.812  -901249.938
927933.719  -854686.250
989927.312  -821593.938
1017720.062  -787024.000
1035831.406  -704445.469
1059660.844  -610499.594
1082299.562  -562776.625
1093811.156  -540035.469
1105750.406  -448288.250
1133219.344  -427635.625
1103213.250  -361144.781
1168353.094  -299208.344
1139302.594  -218102.688
1169282.406  -203251.125
1171369.500  -139213.781
1123037.219  -84735.250
1115710.969  -22760.531
1135916.812  54076.344
1101470.469  91136.625
1073863.594  142227.469
1105842.469  201535.562
1077274.906  271221.281
1031631.500  302920.469
1030735.344  343804.031
993361.906  400690.656
961393.531  453470.062
945604.625  461907.594
912024.281  509590.125
876955.719  521726.656
846914.219  606998.750
810056.656  630640.906
754540.031  649908.094
760122.719  691825.750
690208.469  723447.750
665611.656  756737.375
619114.219  803602.156
550159.844  827187.781
521337.938  833789.438
493543.188  837356.531
465268.625  857040.062
423525.375  884138.750
354307.938  898669.812
318309.406  933219.562
302880.469  919221.969
219033.250  934733.031
169148.000  909925.031
117608.531  956471.500
83850.969  953505.250
70872.344  972939.719
-10852.406  961610.344
-38202.281  930217.031
-79016.969  911789.500
-119532.062  919195.812
-153025.094  936740.094
-179978.156  917007.938
-223049.219  907060.969
-271906.531  871179.844
-318959.469  866506.531
-344023.594  853018.125
-426667.594  842308.406
-429094.844  787993.406
-450268.875  794419.750
-510241.156  741373.281
-505470.812  752917.406
-559870.562  719445.938
-582799.406  651501.281
-631832.094  646035.625
-643518.875  617661.812
-698370.062  556764.500
-693866.469  561492.281
-721293.219  476974.906
-749680.062  478512.656
-736991.938  423821.875
-754174.000  413393.406
-761349.969  359755.594
-819715.500  338825.281
-783142.156  301606.062
-813889.438  258428.531
-825787.906  187290.062
-819549.094  166457.062
-856480.375  165740.688
-836458.750  79011.812
-845312.656  47481.969
-814458.000  -1187.531
-847113.219  -23465.250
-832817.594  -45379.562
-817700.562  -117586.500
-878352.562  -142654.375
-803581.250  -149863.281
-807067.500  -238075.562
-761599.719  -251314.594
-751856.438  -281144.875
-723422.938  -315944.594
-715629.656  -323653.750
-733733.656  -398925.406
-709179.688  -415596.656
-635249.062  -460237.938
-644826.062  -499961.688
-634702.812  -514459.594
-589723.375  -526109.062
-566171.625  -567145.656
-535437.562  -576908.469
-510757.531  -596561.156
-453080.469  -631953.031
-416759.406  -647459.594
-394907.312  -676784.812
-399985.344  -661045.688
-342065.719  -720797.656
-322561.406  -724460.969
-288512.594  -717110.656
-253190.188  -718229.156
-177207.594  -741557.438
-131380.688  -743586.812
-113572.469  -764534.469
-110609.875  -767153.062
-11931.750  -769457.594
-14562.375  -789036.438
28320.938  -783155.688
65121.000  -759678.188
108371.531  -746059.031
103866.344  -770364.156
182314.000  -728992.281
225688.750  -757347.281
263813.438  -717151.719
289748.594  -689688.156
299368.438  -681872.594
324037.188  -675261.969
388648.812  -657315.625
364948.188  -632446.938
405748.000  -600615.094
473701.406  -630416.750
506943.469  -563630.344
520652.781  -554665.500
519795.094  -502485.344
545638.531  -472480.344
568114.031  -470405.188
615681.000  -416699.594
584981.156  -389578.312
605733.875  -368683.906
631264.719  -328868.156
653722.594  -318450.969
670058.062  -295647.938
676480.750  -221086.688
720085.688  -251496.062
705694.469  -160204.375
693313.719  -132983.500
729789.031  -105501.156
710682.594  -74901.625
717245.156  -54108.844
677625.812  -16946.719
683259.531  6125.688
687100.625  65291.250
713630.594  93225.406
643977.000  103927.250
688128.031  173576.781
648809.594  184277.281
641131.250  200852.000
654115.531  269876.125
635898.875  295716.594
617478.656  306502.812
583887.844  312389.375
571412.875  400044.750
552167.000  388678.344
516941.656  433012.031
521047.781  458839.562
483942.094  417056.844
471034.594  469429.000
417821.781  514506.875
406217.188  529191.844
386842.906  537963.875
353784.688  538155.406
345257.469  544363.438
326079.625  614311.188
244615.594  597844.219
238815.562  615021.062
221624.812  623752.094
199244.219  630779.906
146217.656  612839.531
130240.875  623392.062
110971.625  627652.469
81659.719  654174.594
53294.344  635998.938
6884.062  652699.062
-30789.469  679388.250
-82040.125  619419.500
-105109.375  620139.156
-136421.219  634354.375
-163208.562  611732.531
-170220.500  609187.625
-169373.875  609755.812
-248221.500  570745.594
-278802.594  565877.500
-309155.156  555235.719
-326018.656  535145.281
-341818.750  521313.062
-361012.281  507727.312
-399390.969  514400.844
-407920.938  463021.844
-433828.250  452174.031
-468515.344  448162.469
-468751.344  385539.094
-517116.938  360791.031
-494910.719  353377.844
-508795.344  309642.062
-526647.750  318157.750
-518178.250  277101.812
-554458.750  261356.031
-544857.844  208525.188
-573030.469  183517.094
-613574.969  184800.469
-614182.562  153093.125
-568645.000  117183.719
-593695.312  75883.875
-584050.844  58966.156
-633911.156  21066.375
-595219.375  6490.719
-603347.031  -4906.656
-616796.500  -86261.156
-598292.094  -93075.156
-589762.656  -128229.062
-624222.844  -152399.625
-596355.719  -164727.312
-571754.344  -199579.938
-555140.062  -223008.125
-547642.094  -232463.812
-511049.719  -275353.938
-501995.125  -318671.562
-497831.562  -319251.938
-472082.375  -345945.438
-473345.156  -367776.719
-455945.500  -393585.312
-451100.375  -422605.938
-403101.531  -412945.000
-359274.375  -437074.188
-364901.000  -459180.625
-333609.094  -521556.750
-296422.281  -481393.156
-295778.719  -530903.500
-290525.125  -547494.812
-219664.188  -512021.531
-225842.688  -563089.938
-148625.688  -530124.281
-159416.688  -543154.656
-109787.250  -537215.656
-94737.750  -555638.594
-69152.406  -581726.781
-33551.625  -592067.688
-7188.688  -565902.406
16296.562  -545825.281
49574.781  -545455.031
76861.781  -551269.750
76057.844  -566041.219
122936.031  -562558.531
147693.656  -529718.969
157730.250  -529597.062
197330.281  -520049.688
247665.156  -506793.031
264485.250  -477622.719
284638.375  -496154.594
271670.594  -444165.250
331422.594  -468517.750
320557.594  -435415.188
356092.156  -412054.031
383579.469  -410264.719
372064.688  -352725.344
438118.719  -350077.031
421686.375  -342979.781
449217.469  -303990.344
466857.719  -289861.625
469175.000  -274232.344
481806.281  -276313.438
499946.750  -213180.562
504952.594  -210916.938
503634.125  -178714.062
522580.344  -155571.062
513367.219  -151709.156
558716.656  -77110.844
553287.969  -122432.656
538116.188  -45957.469
545745.531  -34736.219
523995.281  -8674.188
530324.781  14902.719
535319.562  71231.375
568907.875  80244.750
502823.062  116818.062
521536.938  141515.188
479409.594  116598.688
514848.438  196561.781
485005.156  170396.562
484037.344  225368.000
471224.562  264179.312
439992.250  267114.219
487692.844  280227.688
417521.812  248758.938
403425.594  331793.938
394717.906  335636.094
340394.094  328883.656
364625.875  370801.156
321598.375  351279.844
327353.812  389407.281
334267.469  394810.281
272486.375  450446.500
272186.062  444479.531
201652.000  429472.469
207542.438  467639.844
183174.844  453268.500
173901.469  450290.156
145643.750  462878.969
124816.031  488456.875
130725.656  479470.281
102861.375  491368.219
66185.719  473264.094
16902.969  504517.781
32194.625  483842.500
-11804.625  469585.031
-23852.062  465367.219
-41940.719  480418.688
-76998.125  427894.344
-55699.094  444080.719
-68232.625  446410.281
-124785.625  432218.875
-148297.938  458452.812
-174728.000  431480.281
-214983.125  419502.812
-187656.562  394476.188
-205626.719  362278.500
-230938.188  405606.062
-273820.250  342570.562
-289844.219  374609.562
-286455.750  367172.281
-277454.156  342344.125
-312309.312  290731.906
-290326.031  278220.375
-308833.938  280242.562
-367561.500  260540.000
-313507.688  246810.812
-351047.094  224251.406
-355632.938  205286.031
-376901.562  194035.125
-362823.969  162394.875
-376580.000  161535.781
-392177.281  125398.812
-404615.875  94160.219
-379994.188  115426.312
-375630.000  67095.688
-384778.406  52803.562
-349619.250  66923.781
-365723.594  7557.625
-358724.500  -22974.750
-368190.562  -10900.938
-379639.312  -48949.500
-356145.750  -43865.562
-339368.000  -74715.750
