        $SEQPAR
        DWELLTIME= 0.0001220000000000
        HZPPPM= 0.0000000000000000, 0.0002025255087268
        SEQ= ( 64 )<ISIS_31P>
        $END
        $NMID
        ID= '( 60 )<NADH_20mM>'
        FMTDAT= '%6.3f'
        TRAMP= 0.1100000000000000
        $END
18286.750  -134003.125
8230.125  -410584.125
-141484.375  -410463.250
-355402.875  -293348.875
-415517.750  -86724.125
-440292.500  112203.000
-301101.000  285270.375
-195401.875  419396.875
22942.250  466909.375
209045.875  371480.000
356455.625  259635.000
426889.500  9934.500
381455.500  -156120.375
239730.000  -274483.375
169620.500  -465373.375
-55571.125  -400096.125
-278149.875  -329712.750
-303104.500  -250882.750
-375041.250  -14536.250
-299323.875  180390.750
-261073.625  282548.000
-47643.875  393022.750
127194.250  388523.625
239815.500  297799.750
358156.750  204211.625
302869.125  698.375
329056.000  -180919.000
222342.000  -257579.125
42815.750  -348514.625
-115464.250  -348413.250
-318753.125  -226569.375
-342271.125  -136128.500
-335428.125  72007.625
-305826.750  178315.625
-99222.000  283518.250
9883.750  276314.750
83591.375  254194.375
282913.125  279266.375
305907.500  128766.000
311714.625  -65233.875
245086.125  -205227.375
158847.000  -334787.750
45836.625  -307503.625
-158896.250  -247278.250
-295744.875  -177179.875
-374601.625  -32440.625
-287834.375  72851.000
-258815.250  124204.250
-146048.125  358611.000
38871.875  310841.000
101805.500  288999.000
261043.750  145760.625
293563.625  50505.375
363553.375  -118638.000
248258.750  -245666.125
135511.500  -267663.750
-54112.750  -283541.250
-186226.250  -230698.625
-208359.250  -204205.000
-304647.250  -55526.750
-310404.375  117936.875
-125788.125  250158.375
-74352.500  266557.375
40028.375  263674.625
157317.375  186605.625
228324.875  142797.500
327398.750  8034.125
278748.375  -108810.250
120511.000  -227870.000
105034.750  -257094.625
-87923.500  -247681.000
-179177.625  -215925.500
-337967.875  -123665.875
-208748.625  -5888.125
-206494.875  79988.125
-168548.000  224263.875
-26760.125  252065.000
6298.625  246583.250
163057.250  180242.875
243025.875  60770.625
325239.750  -48955.625
167232.750  -159936.625
41180.000  -211238.750
23612.625  -273607.250
-155883.500  -263696.000
-223410.750  -158278.625
-208375.250  -61598.250
-238512.750  61398.875
-199437.125  207820.625
-127150.875  220830.375
-946.625  253269.000
153028.750  304948.250
149754.750  126097.750
268124.875  -34270.500
298382.000  -36890.750
198373.500  -150896.125
103413.750  -201320.625
-59940.125  -268237.875
-120131.750  -264602.875
-170846.375  -115967.625
-246392.625  -69433.625
-229288.750  118247.250
-127887.250  175248.000
-26515.875  277351.500
67853.500  228007.125
131689.125  182177.500
208213.125  75639.500
237295.875  -12923.875
201500.125  -84202.000
140444.125  -182102.250
25135.875  -200479.375
-75.875  -202696.875
-189662.625  -173390.375
-189303.125  -45665.875
-208146.250  -108.750
-208379.000  102121.500
-124601.875  129738.375
-10570.750  213955.125
104953.250  173893.000
137757.750  183090.875
193530.125  80858.125
175374.875  -75589.875
211482.875  -183466.625
196433.125  -195295.875
78821.125  -234092.125
-114854.375  -279176.250
-187944.125  -171757.875
-259033.250  -106410.000
-227399.250  72738.000
-102492.375  148421.500
-91641.375  188933.125
-17182.250  241409.875
79667.500  169272.000
238054.250  123744.125
247084.250  43198.375
191466.000  -72120.875
215640.625  -116009.750
125849.250  -219568.000
-9914.000  -193022.125
-106852.250  -158722.375
-183293.625  -42177.250
-227302.000  -47425.500
-137466.125  81443.625
-166709.250  159832.125
-29645.750  189306.125
4018.500  195625.125
166618.125  170947.500
202927.625  98736.000
258374.750  12651.500
204593.750  -93104.375
108869.875  -169289.750
28939.250  -229599.125
-15598.250  -155834.000
-166081.375  -214889.750
-180428.000  -119656.625
-244677.125  -47896.375
-222288.625  114216.000
-129840.250  217064.875
-31067.625  230841.625
65923.250  172150.875
142668.500  130181.625
201412.125  110307.750
238265.500  -2224.250
207170.875  -21596.250
93906.250  -166500.000
-30429.375  -201213.750
-158668.500  -260034.250
-120171.500  -151280.250
-152045.500  -11901.125
-174162.125  32123.375
-145463.500  122243.000
-83598.500  160226.375
7290.750  246834.125
120959.000  294909.125
133724.500  101097.000
313179.750  137709.375
156663.500  -8581.875
154553.500  -61910.875
112578.625  -174037.000
36310.250  -192584.500
-82918.000  -184273.750
-136972.500  -76847.625
-244470.625  48750.750
-207292.500  14122.375
-173425.750  145901.750
-87061.375  139971.000
67269.625  219791.750
130366.125  165840.375
225740.875  106882.750
193377.625  50999.875
168612.375  7737.625
167636.750  -176313.750
53446.625  -201581.625
-57302.250  -166515.500
-87349.625  -154437.000
-141440.875  -135031.250
-151300.750  78896.000
-203887.500  67874.375
-86568.125  146845.250
12094.000  215224.375
83813.750  222823.375
81536.000  118204.375
199413.500  90229.750
180930.875  6914.875
210920.625  -87896.500
133239.125  -125854.000
32508.375  -204650.000
-97090.250  -222764.375
-109086.125  -72138.625
-174919.000  -21538.000
-284722.250  -17998.750
-140514.125  85127.000
-106547.500  156109.375
-25380.375  228283.375
-12667.125  110824.875
118499.125  62162.625
124435.375  19773.000
153948.250  -34174.000
175414.875  -189330.250
82813.750  -137559.500
-57134.125  -204327.125
-113146.000  -218082.750
-125033.625  -120780.125
-118408.000  -104931.500
-94124.500  14853.875
-150009.875  145533.625
-104135.125  169463.125
15820.875  199688.375
100266.875  212150.125
191861.125  146329.500
193863.125  10257.125
235075.875  -71382.375
95384.875  -66019.750
16069.625  -170529.500
-31003.750  -157655.875
-91466.250  -211018.000
-199313.625  -116436.250
-195507.625  -42674.750
-120250.125  56688.000
-111489.125  152752.500
-89359.750  182109.375
7275.625  178723.875
95264.375  150854.000
148399.375  129798.875
184066.875  -23418.125
138440.125  -98483.875
108120.500  -160109.000
14801.500  -132987.750
-29436.125  -147726.125
-191600.250  -124309.625
-159351.125  -91016.250
-206363.375  38151.125
-132889.875  65780.500
-52478.875  174534.500
-21792.875  236881.875
112351.500  147901.250
137930.000  179807.125
194921.250  146197.125
174423.500  -901.500
202495.125  -140326.750
30920.750  -186516.125
-27410.250  -178907.250
-87521.125  -142432.375
-150778.750  -70940.375
-197273.500  -43897.250
-184752.250  68902.000
-142172.875  77168.500
-35354.250  80012.625
40587.875  116676.625
152368.125  127617.750
103082.750  108338.125
180781.250  118149.875
190537.750  7726.250
109969.625  -110316.875
95001.125  -191892.000
32506.375  -159127.875
13688.875  -230955.250
-156986.125  -172454.625
-184485.750  27819.875
-148311.375  24157.750
-99905.375  131643.375
-29020.000  127371.000
67005.875  159105.500
89048.500  170245.375
213722.500  101667.875
147434.250  4843.375
193842.500  -37098.375
112286.125  -187992.875
154171.625  -208643.625
-31601.875  -214364.750
-102069.750  -136024.750
-168006.750  -87598.500
-180250.625  18584.875
-169158.750  90276.750
-87015.500  111228.750
-28634.000  217483.875
66684.750  239246.375
92036.250  141188.500
219359.500  35150.125
179047.750  -67911.875
195323.000  -76395.750
72399.375  -167034.625
28500.250  -254630.000
-72051.750  -102611.625
-104979.250  -153953.625
-158474.250  -87560.875
-202276.125  48652.125
-124386.500  29200.500
-83097.000  151671.250
49577.000  233798.750
58313.625  139461.000
104492.375  88086.125
201005.875  83797.125
191480.250  4926.875
156237.750  -55343.625
182040.500  -118887.000
21882.500  -165364.750
-72225.500  -136974.125
-155863.000  -154600.250
-167004.750  -22348.500
-131890.750  59044.625
-123769.875  96153.375
-28372.750  150331.875
-15662.500  155945.250
53873.625  209251.750
134053.250  125250.625
188033.000  18422.250
128804.250  -71912.625
150808.875  -131565.375
70701.375  -140526.500
-22544.125  -134085.250
-50687.000  -140671.250
-143245.375  -43331.750
-119356.125  12932.125
-71486.250  62037.375
-95027.500  128684.000
-53173.750  181143.750
76958.875  115723.625
80554.125  63873.000
209535.125  102762.375
136690.250  40808.875
117020.000  -90258.000
91423.125  -139082.125
-7465.250  -184820.500
-70890.125  -149991.625
-48103.875  -116060.125
-96625.625  -48845.625
-156755.125  60522.750
-84289.250  85204.000
-103271.375  79270.750
7877.875  122686.375
91917.625  81582.000
186564.625  108585.250
92757.750  21758.875
206688.125  -34441.750
145288.750  -103942.250
107421.375  -132215.625
6312.875  -93119.750
-114922.625  -109065.625
-159243.625  -120365.250
-185465.875  21185.000
-119746.375  65166.500
-49815.750  107406.000
-77780.125  199971.500
25545.375  162333.125
55092.500  130170.375
105626.625  45013.625
152181.500  14020.875
131965.250  -86761.375
75043.375  -106968.375
60900.000  -187273.875
-67255.625  -176415.625
-129123.500  -101023.500
-165259.500  -87188.875
-142778.500  67745.000
-138689.375  92923.125
-89878.625  97185.500
27603.875  188021.625
-14765.375  124384.375
96669.750  114631.750
136808.750  46478.500
52921.875  -5982.750
128475.875  -50491.500
51440.125  -104751.875
7745.625  -115012.125
-27044.375  -96499.625
-137140.750  -101908.000
-190102.750  -43993.750
-121847.625  31841.375
-87670.500  80657.375
-37994.625  51645.875
46105.750  100755.125
87004.500  99623.500
93233.250  80007.250
96038.750  51151.000
105532.625  11544.875
143223.875  -113054.125
-29137.500  -111041.000
-99323.000  -93879.625
-25399.875  -98539.375
-89941.375  -37564.625
-125564.500  -21107.000
-74229.875  11655.625
-96798.250  80539.750
-117930.125  34896.500
-56855.125  81309.000
31966.125  43291.750
113343.250  56498.375
94245.000  51667.500
122373.875  -5500.875
77670.000  -58039.875
53901.000  -128069.000
-41519.125  -92449.625
-114861.750  -95496.250
-77592.250  -67991.375
-95457.250  -10425.000
-57411.125  33222.500
-49619.875  73940.000
5504.375  141250.000
62580.750  101069.000
