        $SEQPAR
        ECHOTIME= 0.1300000000000000
        DWELLTIME= 0.0001220000000000
        HZPPPM= 0.0000000000000000, 0.0002025255087268
        SEQ= ( 64 )<Singlepulse_31P>
        $END
        $NMID
        ID= '( 60 )<NADH_20mM>'
        FMTDAT= '%6.3f'
        TRAMP= 0.1100000000000000
        $END
-585769.719  -133909.656
-1788044.219  -362485.094
-1673236.844  -459867.438
-1664880.562  -662304.281
-1492266.844  -609283.156
-1620689.125  -725845.250
-1486267.406  -836599.281
-1394861.594  -844871.188
-1408048.781  -941791.625
-1407896.156  -1020209.188
-1236728.594  -1102875.625
-1292865.688  -1124356.594
-1162967.688  -1238028.031
-1080008.375  -1282811.375
-1013124.969  -1297803.312
-919170.000  -1359385.875
-844411.875  -1386827.781
-798267.188  -1434506.906
-694159.438  -1441949.500
-596037.594  -1462557.531
-505226.844  -1494192.344
-405026.844  -1502878.281
-369955.281  -1567438.531
-250924.875  -1509911.844
-139976.125  -1533275.594
-124239.375  -1556013.094
-13620.594  -1479994.156
70860.125  -1520435.312
155822.438  -1489397.250
252139.594  -1470715.781
320868.781  -1453094.031
396905.406  -1390425.250
470306.500  -1362627.719
566310.531  -1324208.500
650992.938  -1303010.062
650409.844  -1243180.656
715795.719  -1186577.094
793115.656  -1135065.188
835241.281  -1045729.375
889654.219  -1008483.344
945853.125  -945518.281
979469.375  -908503.719
1050624.156  -816113.531
1070992.656  -754476.188
1098240.906  -671390.375
1122342.875  -606634.656
1145167.969  -564550.969
1158391.406  -473528.469
1204212.312  -402929.375
1199899.000  -324948.781
1182788.344  -245705.531
1224224.781  -193165.344
1173054.906  -129107.469
1200638.031  -59824.719
1199087.812  10166.406
1187555.969  83214.969
1192768.312  157484.688
1137275.062  208206.156
1121864.844  267504.406
1083339.469  296241.281
1048221.344  416870.000
1021679.188  420973.094
995540.594  525625.156
945740.719  569651.156
900197.969  624693.750
827749.406  654410.688
796192.844  710452.281
764585.562  731056.938
697515.375  784466.906
677794.375  841328.062
597732.188  831704.688
559590.312  892548.406
469316.219  869738.250
397469.031  936295.656
382431.875  961587.500
320915.406  941025.656
302853.969  929362.781
209433.625  955509.250
108955.781  967558.969
110675.406  974613.094
37459.094  962270.219
-13639.469  972247.750
-65530.656  930865.750
-123321.250  956635.000
-203063.688  927498.188
-212188.812  903075.500
-277769.438  895110.438
-328991.906  867360.750
-377243.000  837652.219
-434324.156  827542.562
-431196.656  801013.031
-524813.625  756290.531
-562367.406  764989.250
-588978.906  706584.125
-615212.938  675651.375
-645845.406  630076.188
-727420.625  593808.094
-739702.781  543329.750
-734842.344  514147.875
-759439.188  497171.125
-783777.250  382432.500
-790362.781  397813.531
-808919.562  298817.781
-850506.625  254629.406
-848251.781  195091.719
-878217.188  160066.500
-890844.156  101185.344
-876697.125  55273.031
-866758.688  31494.281
-847538.844  -34144.812
-838904.188  -53718.000
-859773.156  -97962.719
-862715.062  -135085.438
-810152.531  -226032.375
-789032.500  -239361.781
-776538.812  -307680.250
-746878.750  -343616.281
-744573.438  -391522.469
-719422.719  -432985.094
-660890.219  -486596.438
-673914.406  -484831.406
-649501.656  -509629.312
-592461.031  -586824.094
-586078.594  -591436.562
-525236.156  -627243.438
-482882.500  -656791.281
-450771.406  -663252.406
-401243.781  -687949.656
-377768.750  -701553.406
-324532.750  -726850.469
-294584.500  -762667.750
-239914.094  -760454.031
-184530.312  -761187.531
-176110.562  -768404.938
-103281.812  -793983.469
-73156.875  -803400.438
-28193.969  -794912.094
23155.000  -808628.219
76433.156  -792988.719
88274.344  -781112.344
184337.375  -746249.094
190922.188  -727615.844
254744.781  -740479.188
294437.656  -690328.719
319777.094  -709337.062
385327.312  -698057.688
423141.250  -631119.531
428645.969  -656391.750
458005.000  -625514.875
492570.469  -562615.281
527979.844  -532075.094
538367.031  -543134.375
607612.844  -505016.875
566091.031  -408093.469
623189.562  -404436.500
656089.156  -358639.469
667359.281  -308935.469
704203.594  -287593.562
709179.812  -246992.812
713346.188  -202774.406
719085.906  -187001.719
741125.500  -104614.250
720450.750  -81015.000
764790.750  -44453.594
730553.875  -5723.031
724240.156  64972.562
721270.250  92243.500
710638.500  97975.219
721033.031  174776.219
689530.188  214119.781
695700.938  256140.906
648276.719  310404.625
623591.438  340491.719
610237.656  375410.094
587855.750  406854.438
574735.469  409179.312
526465.219  473281.469
502265.094  490877.062
485305.125  532659.156
438848.156  548221.250
418923.812  564574.594
370881.969  574906.875
350830.188  602077.094
296023.812  620335.562
302353.281  642861.531
249903.031  677270.750
172460.875  653613.062
146663.812  698512.688
134546.500  678461.844
100415.938  684759.500
11175.625  663041.375
-25344.812  689150.562
-37624.469  679085.844
-85367.781  653972.750
-143000.531  655525.219
-144985.156  630270.125
-197937.281  647501.906
-245451.875  634538.594
-303130.312  610138.625
-287940.375  615700.562
-343435.969  579853.844
-335501.469  536118.531
-379142.312  549808.719
-437873.562  474352.438
-470828.656  456948.344
-473084.625  431320.719
-528541.469  436121.438
-540117.750  385217.125
-544902.812  359841.062
-575931.594  301679.375
-602803.594  275128.125
-588827.031  251800.500
-633457.469  222711.000
-652814.812  179395.938
-604600.219  141067.125
-626745.781  118346.562
-626607.312  43450.719
-641297.031  50787.375
-657899.531  -26546.812
-662028.906  -29111.656
-580157.188  -85014.875
-614490.625  -119901.969
-602150.531  -136769.625
-596532.875  -172637.594
-601134.219  -210583.094
-563515.219  -236259.031
-570552.250  -312036.688
-524052.781  -336523.906
-499328.125  -331670.938
-476880.094  -359727.375
-477928.000  -385104.000
-436050.344  -400127.625
-409389.156  -447172.156
-398286.781  -485055.531
-367908.312  -482263.719
-330478.656  -527732.656
-301403.125  -519448.812
-276315.781  -559139.875
-272084.562  -585391.938
-200474.250  -563957.344
-191095.125  -570639.469
-134714.344  -579523.938
-88183.219  -586850.062
-62508.625  -601167.000
-40346.469  -614370.875
-12266.812  -597307.000
57729.438  -603426.500
63486.125  -577161.906
93172.500  -560322.438
126604.531  -567228.281
155591.375  -577079.844
182288.156  -558355.656
224082.562  -521672.469
269519.812  -533904.688
275043.312  -515144.594
306197.094  -500819.625
341913.188  -459902.969
395657.625  -445086.688
380119.219  -414325.625
402838.406  -438975.812
457922.406  -373987.000
477616.000  -381420.562
484884.562  -337383.188
495970.125  -263024.844
531725.031  -263661.031
500728.719  -241156.562
500966.969  -220723.812
509708.219  -170652.938
576248.938  -121303.938
571796.688  -110743.938
548683.656  -83250.719
593464.469  -18504.188
528483.781  -48703.219
571142.594  9304.719
564979.875  80215.969
559947.875  98617.375
554727.250  150263.031
531885.594  172214.656
534613.469  188892.625
540509.250  224942.938
502458.375  230116.312
495778.438  304162.844
456257.500  275129.188
467428.844  327443.250
421075.812  378717.656
418440.844  364352.312
394593.375  401785.469
374846.125  383612.094
354093.906  462900.812
320244.188  484067.906
287945.219  474107.406
231469.656  479844.719
223031.188  499456.844
191611.281  498603.969
149307.406  490532.281
113775.125  498420.219
109781.469  511930.969
66464.938  568318.094
38334.156  543401.281
29788.688  533980.281
6358.562  532911.719
-61830.844  552927.719
-63844.062  551451.812
-120425.531  522774.875
-133096.969  531231.906
-149270.875  489531.156
-214037.375  487998.500
-238340.156  480218.688
-259869.281  458768.031
-295461.188  460465.250
-318920.406  429951.719
-339827.781  422568.219
-376257.375  414331.750
-375500.469  348728.031
-381827.938  338054.438
-425380.625  324498.188
-428420.250  263957.281
-460649.875  285217.656
-446478.531  226379.219
-463697.531  200286.781
-473600.812  158704.625
-474742.875  150979.969
-492256.375  129160.656
-510189.938  115478.000
-491453.906  98292.094
-500735.531  53957.000
-504531.812  -20075.781
-523253.344  -40060.281
-500712.625  -73805.000
-498098.719  -102900.625
-517321.062  -113382.438
-472954.531  -181128.719
-463850.656  -186979.031
-468722.312  -218177.062
-442064.312  -229439.188
-476605.500  -243851.406
-419491.031  -262156.906
-407922.594  -269507.188
-403214.656  -312338.469
-371008.562  -322105.281
-339746.656  -356328.000
-351477.688  -393899.000
-301573.750  -398504.344
-279355.969  -404653.844
-231363.188  -411112.469
-230303.281  -441164.188
-200788.250  -463593.562
-191849.031  -463378.156
-153195.094  -484208.500
-123126.625  -481112.625
-104248.219  -471072.938
-77440.094  -448875.719
-65365.094  -481250.438
-24396.938  -490392.719
8603.125  -481089.344
1176.750  -462313.625
69105.438  -449128.531
55661.938  -455699.000
111057.250  -461440.750
119756.281  -440138.812
157466.625  -450207.312
167625.594  -444775.500
203724.750  -407898.688
253739.625  -407736.531
260117.344  -400429.438
270654.281  -363283.562
297263.062  -302012.969
273276.500  -348222.406
333915.750  -313577.812
344307.375  -282910.438
356149.469  -307960.156
337463.219  -245384.562
384754.094  -235671.812
384233.156  -214871.125
392338.531  -201548.000
391127.812  -185508.375
387163.844  -135243.125
408924.250  -149371.500
409651.094  -106136.281
408149.219  -58495.562
406002.656  -72799.031
430554.844  -41507.875
413336.531  -25313.312
374313.125  32399.188
401572.750  68841.656
412031.812  40494.156
378642.625  60054.094
361190.906  120638.969
355787.312  141789.312
339297.906  146091.812
355428.594  137886.406
311975.188  182717.188
325557.562  193886.562
338775.438  193240.562
283603.594  225474.969
277068.000  243152.344
242587.438  226736.031
234812.719  269534.500
214943.969  282055.156
226039.969  291087.375
170845.812  314425.125
154239.656  292504.250
139060.281  305337.000
