        $SEQPAR
        DWELLTIME= 0.0001220000000000
        HZPPPM= 0.0000000000000000, 0.0002025255087268
        SEQ= ( 64 )<ISIS_31P>
        $END
        $NMID
        ID= '( 60 )<NADH_20mM>'
        FMTDAT= '%6.3f'
        TRAMP= 0.1100000000000000
        $END
3161.875  -77063.875
-5446.250  -229877.125
-89524.875  -136044.500
-130854.125  -151768.625
-164778.125  -40593.250
-207547.875  -58125.125
-219941.000  66440.000
-116880.750  165092.500
-51102.250  131708.375
36060.000  204096.250
105522.000  138148.375
171726.125  78545.625
123053.500  19278.125
210475.750  -107682.500
87071.750  -208219.750
35314.875  -192692.375
-65586.125  -162541.625
-130012.625  -144639.750
-110910.750  -7039.000
-150962.625  13869.875
-133127.125  77174.500
-64150.875  125341.500
-7476.375  182200.750
79605.125  87547.750
164487.625  161399.750
202417.125  61206.375
129240.125  -70057.375
147236.000  -133700.750
35705.000  -146217.625
4388.000  -150515.500
-43543.875  -133642.250
-147242.625  -118498.125
-137224.250  27193.500
-172682.375  77172.750
-134918.375  78410.375
7361.000  87421.750
20178.250  164989.750
101232.875  115883.625
153293.375  83877.625
174479.375  54493.125
170876.625  -533.250
102232.500  -59346.875
96108.250  -162378.750
-64413.125  -128971.750
-19752.625  -121923.250
-93274.750  -95681.000
-94657.875  33129.250
-110466.875  28428.250
-92657.000  113887.500
-99243.875  98186.000
22352.500  164057.875
126187.625  70022.125
65854.125  34834.625
126231.125  -19369.750
89043.250  -109822.500
59645.500  -121021.500
33068.500  -56526.750
-10041.125  -101344.750
-118089.000  -76004.125
-100234.500  -15031.250
-108906.750  -27341.000
-147707.500  58837.750
-82183.250  82135.250
-74401.125  105931.750
26055.625  116492.500
79886.250  101174.375
61406.750  63702.875
125212.000  16061.125
61571.250  7240.125
2311.250  -91415.625
-14331.750  -75882.375
-14938.500  -60731.250
-111820.375  -71174.750
-117840.000  -52885.625
-84693.875  -30797.750
-139954.000  47901.000
-16807.375  63514.375
-57887.750  158387.250
43062.875  80882.375
110147.375  111904.875
105296.250  63760.750
133041.125  -616.875
31321.625  -67995.000
76833.750  -66807.750
12450.500  -154574.500
-93507.625  -113129.500
-98477.375  -86788.500
-95014.375  -52804.000
-41754.250  23784.500
8002.750  39783.000
-32076.375  138858.750
26902.875  77375.250
-7546.750  137058.625
83839.875  91121.000
74032.875  -13714.125
124830.375  -121037.250
73328.750  -73508.750
43473.500  -91547.375
34687.250  -58868.125
-62226.000  -69980.500
-99378.750  -37654.000
-74127.875  -6433.625
-77377.375  49657.750
-71161.500  35744.125
7436.875  36168.250
34683.000  127125.750
114077.375  91134.625
74353.125  61685.250
135439.625  -60451.000
24126.125  -73563.875
78128.500  -92274.375
9004.250  -149352.375
3900.750  -67358.500
-28111.750  -25351.250
-95918.250  -11145.500
-100790.625  -16399.000
-95202.125  65536.250
-27273.750  48772.875
-87758.875  100189.625
105623.000  144390.875
95650.000  99168.375
159366.500  18309.375
6586.000  -55175.875
-2269.000  -75276.625
27909.750  -71142.625
13440.250  -167492.375
-17248.375  -80507.500
-71543.750  -82225.875
-62403.625  17256.125
-67664.125  -32968.250
-47895.250  89647.125
-91649.625  92183.375
-10711.000  72067.125
19760.250  53412.000
61017.250  59593.750
28032.875  16178.000
27455.875  -46607.250
29787.250  -68792.000
42976.625  -80242.875
-4390.125  -65132.250
-63091.500  -50872.250
-124439.125  -23856.500
-108214.625  -46990.125
-83489.000  27494.750
-32117.875  104935.250
-32979.625  118607.625
4416.000  125800.375
73538.875  137773.625
53908.875  40277.875
117011.875  1699.875
46616.000  -26402.750
39953.125  -113232.625
7175.625  -142068.625
-40016.375  -61943.125
-50696.375  -21420.500
-84723.375  23857.875
-108629.875  33674.250
-82913.625  72081.250
-38856.000  58707.875
-33608.250  70881.125
-71575.500  63552.500
38946.625  33776.375
58349.375  16082.000
74792.375  -77666.000
88239.375  -59871.750
-3630.125  -112187.500
-1944.000  -95311.375
-8459.750  -135115.625
-118615.000  -30647.375
-75584.250  -33218.125
-116986.875  37014.125
-37016.375  9995.125
-74942.500  106300.125
-17049.625  114213.250
84802.125  71071.125
24260.250  76186.250
89999.375  24512.750
87045.875  -27320.125
81586.000  -71235.750
-38954.000  -31251.000
17062.750  -11348.250
-57488.125  6599.875
-151340.375  -19698.375
-117841.375  -20459.750
-36822.125  43468.250
-68183.125  99257.625
-16469.875  116265.375
28647.500  103537.625
39282.750  67828.625
52266.625  20111.875
77780.750  -28588.875
48756.625  20012.250
-5908.875  -79110.125
-26019.250  -37487.500
19937.125  -122080.250
-15163.625  -12420.625
-111008.750  -79348.875
-44802.750  -29728.250
-59769.250  76564.875
-60634.375  81153.625
34073.500  70862.625
58417.375  133158.750
53228.000  15873.125
84097.625  28490.250
52540.125  45743.875
53812.750  3317.500
42345.750  -46423.750
11764.250  -93502.125
-133.500  -137045.500
-62876.625  -91914.375
-26965.125  35097.625
-124267.625  -55192.625
-100250.250  31465.625
-58874.875  69936.750
-26878.375  48418.375
30291.250  70170.500
23724.875  19726.375
82383.500  17776.125
63989.875  9365.625
117574.875  -3973.625
66484.625  -93616.125
-21406.250  -28644.750
23326.000  -72880.375
16317.750  -45611.125
-110876.250  -10064.250
-74540.625  -21039.500
-97421.125  43146.375
-53811.375  37600.500
10983.625  91219.625
35136.500  77582.875
105534.250  63694.250
59382.500  32262.375
142990.125  13164.250
66080.000  -108440.500
83456.000  -65990.750
16385.125  -149350.875
-92394.125  -53031.000
-13894.500  5610.875
-91890.000  -50513.250
-111223.125  -27956.875
-73532.000  22791.000
-28651.125  40110.375
43587.375  37729.500
-14856.250  57914.750
84511.875  91936.750
90239.250  27672.375
110291.500  -57160.375
63753.000  -65242.875
24011.125  -80822.500
6439.500  -78929.875
-24468.875  -89917.625
-24513.000  -29686.000
-123101.625  5862.875
-58849.375  4300.625
-105504.500  85349.375
16492.375  30004.250
29480.500  67038.375
83742.875  61223.375
37806.125  26767.750
45844.125  32726.000
77941.875  -38341.000
50146.250  -98401.250
57168.625  -3700.375
21057.500  -41518.625
-88385.125  -70525.000
-24061.875  -22056.875
-65808.625  -34685.250
-101824.375  -20705.000
-61817.375  69343.500
-20238.000  20473.500
56246.875  89302.875
9315.500  86619.750
182013.125  56348.250
103292.125  -19374.250
65424.125  -21390.750
24327.500  -23430.750
-20530.250  -90447.625
-34764.875  -183742.125
-106621.250  -31001.375
-137545.125  -84909.875
-60467.125  27076.000
-78329.125  23000.375
-9926.375  95203.625
33955.750  32245.125
-5040.000  86295.750
46038.500  80684.500
56543.625  -17467.000
43206.125  -16356.625
46380.875  -97402.375
9017.500  -26941.375
43607.375  -84636.500
-80420.625  -120465.375
-116062.375  -7667.250
-44168.000  -16336.250
-61374.125  40903.000
-91941.375  75125.375
-18568.500  66135.875
16502.125  57311.875
71281.875  22212.250
49842.625  111096.375
44270.000  -10425.000
109433.250  -71397.500
60788.125  -41824.750
65013.500  -75284.000
-16107.625  -40056.500
-61444.625  -58255.125
-77603.000  -16852.250
-89425.875  43828.125
-18368.375  52535.375
-14357.875  57837.750
-30062.000  97045.750
2907.000  80093.125
65771.500  34063.125
47011.375  37247.500
105392.375  54675.875
66286.500  14501.125
-1338.625  -55718.375
9542.500  -40361.500
-17046.625  -52858.750
-71061.500  -78636.500
-68123.125  -38360.375
-79245.625  5943.250
-72763.750  36913.750
-19133.625  26012.125
-54676.625  93220.375
8678.625  99137.875
-11196.250  42952.500
30987.000  3566.875
52660.625  -20768.000
35877.625  -37961.250
17599.375  -11099.750
-1579.625  -44281.500
-4848.875  -96758.125
-46080.500  -17019.750
-38692.125  -19362.250
-60210.125  10806.125
-41749.625  85698.500
-31716.500  116162.750
-14126.750  116105.250
-7993.500  98230.125
51267.875  75799.625
67274.875  67089.500
103686.250  -58840.250
99822.625  -21446.375
46289.875  -47134.375
-31050.000  -70302.500
-5984.500  -45447.000
-35699.500  9762.625
-79802.875  9886.375
-106520.375  12018.375
-103168.750  16868.625
-38723.500  56405.625
-47722.500  81537.875
52436.500  72758.500
29095.875  -77.875
33059.250  -23065.875
116733.500  -59936.375
19759.250  -46542.875
8424.875  -39436.875
-46917.875  -37570.750
-60509.375  -102173.500
-71666.625  -81883.000
-50368.500  13258.125
-55478.750  12784.000
-51090.375  51919.375
36948.125  74267.125
-27711.750  39372.000
1094.375  50873.125
54270.500  30969.875
60152.000  -23965.125
80479.750  -36398.000
20821.250  -88120.625
-62057.125  -81809.750
-31018.375  -45724.000
-25170.875  -9216.125
-57115.250  -5693.875
-114119.125  67994.625
-91055.125  76883.000
-20588.750  15061.000
-81201.000  54377.625
-3349.625  89166.125
67800.375  52496.125
53046.125  12632.625
55206.875  29004.750
76160.875  -29081.125
9471.625  -37954.250
-20538.125  -30882.750
-38089.500  -26959.625
-80703.125  -28548.000
-104725.000  13825.250
-89946.875  3324.875
2113.750  8724.500
-3066.625  59151.750
24609.750  53961.625
-17570.875  71898.625
44708.000  37353.500
63691.625  2689.000
32687.875  -43271.500
17301.500  -26668.000
29266.625  42267.125
-28077.000  -5099.000
-15920.500  -14688.375
-84542.625  -23789.500
-13294.375  27794.250
-23054.500  -3387.500
-6727.500  24532.500
-4290.875  64278.750
-8675.000  36363.125
402.500  73146.375
50546.875  32023.250
12463.375  -10777.375
11951.500  -35090.125
31179.500  35921.125
33045.875  -48786.250
9253.750  -26542.750
-16431.250  -86485.500
-29928.875  -34681.500
-31474.125  28488.375
-30766.625  27064.250
-39107.625  23929.125
-74309.000  40211.000
57182.750  57168.125
50580.125  81249.625
32170.125  42108.875
59850.625  -51640.000
11987.125  -2516.375
55349.250  -32684.750
-52132.875  -83061.625
-5315.875  -7090.750
-11537.750  -44833.500
-41062.750  -29542.750
-20685.500  12202.250
-6083.750  41802.250
-13608.250  70428.625
17853.625  -5000.375
-15275.250  4928.750
14818.250  36750.500
54606.750  34926.625
88738.500  -33777.000
