        $SEQPAR
        ECHOTIME= 0.1300000000000000
        DWELLTIME= 0.0001220000000000
        HZPPPM= 0.0000000000000000, 0.0002025255087268
        SEQ= ( 64 )<Singlepulse_31P>
        $END
        $NMID
        ID= '( 60 )<NADH_20mM>'
        FMTDAT= '%6.3f'
        TRAMP= 0.1100000000000000
        $END
-549788.219  -16703.281
-1730120.062  -78603.156
-1592445.812  -253603.594
-1611975.219  -283026.750
-1525315.844  -211915.656
-1658493.625  -348336.969
-1491940.625  -456298.562
-1514562.969  -426951.125
-1506228.250  -499341.000
-1512378.781  -552866.875
-1423980.562  -584381.531
-1456077.469  -641469.188
-1408841.344  -707660.344
-1374489.094  -761609.188
-1309741.656  -748780.781
-1288405.031  -786474.094
-1230035.281  -846848.250
-1211777.594  -856036.781
-1186421.250  -886788.312
-1127810.750  -960476.406
-1073408.406  -965195.250
-1078838.656  -1012514.531
-988849.438  -1031313.750
-945558.688  -1028640.969
-924086.688  -1071032.031
-897078.344  -1114866.125
-834656.594  -1149595.875
-804439.156  -1133823.125
-736231.344  -1149198.531
-682349.875  -1144891.812
-648784.625  -1139617.969
-569930.812  -1173141.062
-549783.281  -1190075.406
-496816.094  -1242534.469
-447961.719  -1245342.156
-399772.438  -1216043.094
-341916.219  -1200172.688
-313857.594  -1208739.438
-252877.250  -1236856.875
-221457.750  -1222209.625
-153813.312  -1222851.469
-138425.375  -1205244.281
-51380.406  -1221651.844
-15843.281  -1195419.406
16080.281  -1139862.625
68337.375  -1140951.781
92792.312  -1163678.500
158568.094  -1127036.250
187158.125  -1104335.688
222130.219  -1111427.000
272968.844  -1089468.781
287417.312  -1060932.281
344347.156  -1055026.344
360134.750  -1035764.156
415221.000  -996620.875
416453.625  -936514.438
497872.438  -919066.375
538645.688  -929876.125
548173.656  -854861.156
562952.938  -873950.000
611124.594  -837176.000
611401.938  -803362.125
637392.594  -744403.625
694772.875  -712019.594
691028.281  -704107.000
719456.094  -648988.688
717440.625  -622075.750
749056.031  -599972.062
764808.406  -555403.438
769666.875  -516659.375
788799.062  -507315.312
837067.844  -431313.562
789948.406  -424899.844
847739.469  -388849.469
817850.000  -365917.781
861497.500  -330845.188
822868.688  -281345.594
822352.500  -245797.531
870061.406  -240694.094
860825.906  -195984.156
852873.531  -142257.156
855014.438  -99740.969
846801.344  -121231.000
880906.750  -33150.031
878952.188  7802.312
858281.094  22121.281
830811.094  45330.844
859835.906  79789.469
844333.469  80179.562
824637.750  161050.750
830687.906  151918.219
781904.281  198741.062
809268.031  223318.250
769154.562  246707.156
768747.062  262433.094
743422.375  337219.344
737747.719  331706.062
725592.344  340194.750
728511.062  374436.406
683164.656  394698.188
666793.812  426879.906
642007.281  458929.344
617786.531  457607.812
606900.781  468442.219
597819.688  511690.719
542291.688  548109.969
569896.594  582552.719
510611.312  559305.969
501920.844  604411.906
478858.031  604636.000
444628.625  607672.969
419302.750  653666.062
396500.844  641352.188
377101.812  660296.844
365678.031  672675.719
311584.156  661635.688
355030.344  688267.844
275740.562  715532.531
239918.656  717108.000
222170.281  711468.344
207278.219  729414.469
161261.125  701647.406
139014.562  731570.344
137732.750  731364.562
102551.469  726844.000
100812.656  726151.062
49911.125  735171.250
42879.750  719806.906
13557.031  715463.688
-45284.781  713779.719
-50844.469  693910.219
-76807.469  700425.156
-108553.344  714629.469
-134768.781  662513.031
-172723.156  685713.344
-173582.875  650353.562
-196393.594  665150.562
-253919.812  657569.781
-276815.969  644707.844
-304971.312  638028.188
-297549.906  629270.312
-319534.062  586735.312
-312674.719  570972.219
-376544.750  565275.375
-412469.688  555463.250
-406953.094  559725.750
-409926.812  513648.906
-432336.969  496602.250
-446001.938  472124.656
-486824.250  463704.156
-512052.906  452476.188
-502863.969  456386.000
-510320.438  396220.719
-505021.406  364310.500
-530698.906  333736.219
-580644.156  317389.188
-573932.875  312913.781
-589803.938  298048.594
-592658.156  274810.031
-596240.125  243549.031
-638921.031  237358.156
-648109.469  198132.906
-599394.688  166991.344
-641097.156  156964.250
-641212.219  139248.281
-618205.406  64964.688
-635826.062  88579.375
-658171.719  57383.500
-648751.250  32936.406
-610426.781  1854.844
-640454.531  -577.188
-615940.438  -58180.469
-620586.812  -69989.375
-629049.281  -84906.312
-600792.125  -66941.844
-624477.562  -162475.938
-598571.875  -142787.594
-606667.438  -194220.312
-590691.938  -194125.969
-563084.969  -218490.531
-567253.875  -245129.281
-533951.719  -274959.125
-556753.500  -279908.594
-530941.719  -301337.000
-548505.031  -319789.156
-475369.562  -356746.219
-477939.188  -364260.844
-465106.344  -376473.375
-440369.688  -426311.250
-438616.969  -404979.906
-438309.500  -426262.625
-396538.906  -420435.844
-390888.500  -475159.219
-354079.812  -451957.969
-350829.625  -440450.312
-322556.562  -469885.344
-325741.969  -456481.594
-259015.531  -514614.906
-265313.625  -506044.969
-232732.250  -530322.906
-216874.594  -500382.656
-220693.062  -511625.156
-172313.094  -536510.312
-125709.156  -533251.406
-106270.781  -584217.156
-113577.938  -602380.625
-82318.438  -569605.969
-47323.031  -558632.406
-41118.406  -563191.469
-34900.438  -564461.375
1276.906  -566334.938
27558.156  -596738.312
37975.562  -549237.875
39294.375  -576502.219
87123.438  -534257.188
77472.969  -545924.625
105407.156  -538590.719
142976.438  -509376.219
129510.188  -561906.438
201725.594  -519913.281
197641.781  -507359.344
203609.594  -483241.906
255726.969  -479764.844
257005.719  -481408.625
306357.281  -431204.344
262157.531  -453768.188
295545.062  -442233.031
321671.844  -429152.312
321933.125  -396406.406
348837.906  -383009.031
327991.562  -369501.938
371472.438  -367886.656
358516.000  -342297.531
385403.594  -351370.656
416558.938  -336626.781
446278.625  -315489.594
435082.688  -268910.781
461111.906  -267420.438
464294.875  -249819.156
442208.094  -217361.375
477503.250  -227954.781
484901.594  -203045.906
465430.312  -168611.562
469201.906  -172512.625
461453.719  -139025.062
517012.062  -149842.375
484468.938  -98086.219
515789.625  -98508.250
517748.750  -66103.031
525099.562  -54638.969
518880.812  -13131.469
501721.406  3171.688
498949.938  39514.500
510111.250  37497.500
526035.594  90447.688
485067.562  84876.312
471083.250  93205.625
488697.188  85609.406
486215.562  137124.625
488207.875  122898.062
498174.812  152780.031
480481.531  194509.750
453632.000  212148.750
459729.375  199635.406
430243.719  214606.062
435339.469  268434.719
447452.781  232787.625
413196.875  294590.594
412628.188  247298.594
385487.406  302892.812
366315.438  326617.281
377962.219  344760.938
369106.125  353397.625
335309.000  371854.438
312931.188  344827.500
295777.438  371306.938
307160.625  394538.000
264122.750  415597.250
249920.688  417105.875
268476.094  464797.344
231043.750  428532.500
204375.719  442078.812
190816.531  460846.312
155962.812  456307.875
140294.312  480929.156
149893.844  450450.031
124408.188  465377.969
93259.188  471698.062
70989.156  461414.250
23686.750  459281.719
25194.625  487758.719
31609.062  503059.375
4907.531  471462.812
32419.969  470294.531
-16102.438  457649.625
-45996.969  457721.969
-83250.344  480739.812
-75527.312  463389.969
-110588.844  444161.688
-102658.562  451178.625
-157417.281  455500.281
-128727.906  435246.906
-146204.156  429281.688
-214412.750  421147.812
-212257.875  428291.594
-235957.594  432688.125
-217502.125  385240.344
-284450.375  415087.062
-266050.094  387663.281
-280863.562  360254.219
-306550.531  334427.250
-295868.594  342458.031
-311312.375  314978.562
-346124.344  312566.656
-365834.875  304973.625
-344702.781  285273.375
-357524.219  292660.500
-365093.062  273434.312
-365527.969  239837.156
-395374.250  272080.156
-390827.406  198036.438
-431162.500  197707.406
-405936.750  205234.969
-416767.531  171717.531
-435327.344  155566.500
-426492.938  139990.438
-413931.656  115498.219
-407084.844  102309.250
-420368.781  99692.938
-417753.688  107515.062
-436415.344  54707.312
-417664.406  32397.906
-419549.406  36922.844
-442410.438  -14092.250
-433159.719  -22954.469
-465592.062  3296.812
-428894.312  -26370.719
-435142.219  -28653.656
-414904.406  -87007.969
-424670.031  -96977.125
-416149.312  -106569.406
-415839.656  -97911.562
-394130.156  -140649.781
-383774.812  -155459.469
-386407.062  -168506.719
-386435.031  -179680.906
-348687.406  -166352.344
-359870.000  -229870.562
-351097.469  -228670.250
-385858.938  -262178.562
-342352.594  -245503.812
-307878.125  -248028.344
-297957.188  -283396.625
-321067.500  -294364.781
-287592.062  -280373.531
-280484.875  -281016.156
-279980.438  -311651.625
-237095.531  -275291.188
-243438.031  -316343.156
-217663.094  -323102.000
-202680.344  -317927.719
-210261.125  -322058.438
-216982.750  -337517.094
-175343.188  -317969.062
-149917.906  -375942.438
-167246.812  -380552.219
-137317.219  -345674.375
-156530.875  -353512.438
-135107.844  -374896.812
-104099.188  -401937.000
-81578.938  -391542.156
-34731.531  -385281.625
-44574.375  -392041.656
-48374.000  -346099.250
-33694.344  -365466.938
-20541.250  -349640.781
13291.531  -325343.656
9720.688  -366985.406
22186.438  -367128.062
30783.750  -367350.344
46429.812  -358795.719
31392.562  -343039.688
74459.719  -344052.625
73695.938  -347383.375
71677.875  -349009.438
111672.531  -313597.125
123007.188  -300626.594
122857.688  -313372.031
135349.781  -310529.156
156329.812  -296430.812
159853.031  -276304.562
171737.312  -279698.344
162437.219  -274239.000
182366.344  -245762.281
172093.438  -259428.125
193845.875  -248542.188
240265.188  -205422.750
216417.812  -222772.156
208056.312  -222153.031
213679.125  -231859.375
219849.125  -173860.688
223739.844  -183238.906
252775.969  -169308.062
