        $SEQPAR
        ECHOTIME= 0.1300000000000000
        DWELLTIME= 0.0001220000000000
        HZPPPM= 0.0000000000000000, 0.0002025255087268
        SEQ= ( 64 )<Singlepulse_31P>
        $END
        $NMID
        ID= '( 60 )<NADH_20mM>'
        FMTDAT= '%6.3f'
        TRAMP= 0.1100000000000000
        $END
-607296.219  -113495.125
-1855249.438  -338875.719
-1775947.438  -459936.906
-1711648.500  -625368.875
-1565639.656  -564274.531
-1679986.750  -650226.312
-1569841.594  -810128.594
-1530751.656  -835709.031
-1511100.344  -886158.531
-1482456.438  -997708.969
-1319519.250  -1079771.719
-1327562.812  -1135816.531
-1259319.406  -1187299.281
-1148775.344  -1288736.938
-1066885.844  -1312448.406
-1048587.094  -1334427.312
-937588.031  -1399740.125
-890957.938  -1441197.469
-809888.188  -1407528.625
-721965.688  -1481121.812
-611881.812  -1505930.625
-589777.156  -1538750.062
-447757.312  -1540674.531
-385839.688  -1588421.219
-277710.312  -1552491.312
-200447.906  -1542118.125
-169235.656  -1552765.500
-57304.062  -1551164.438
52310.250  -1540817.375
104165.312  -1514587.312
194712.781  -1505534.156
261200.688  -1489695.281
340295.344  -1446232.000
402256.906  -1408737.625
494728.312  -1388554.375
544015.719  -1361686.312
640341.562  -1282754.156
684733.406  -1234965.812
732531.438  -1214183.969
807824.062  -1163161.062
862387.438  -1065090.188
910009.844  -1050350.500
950825.000  -970565.719
980694.750  -904577.281
1044381.875  -838593.844
1050737.031  -802760.906
1085228.906  -750708.062
1122987.531  -659537.844
1149698.469  -616475.062
1161122.094  -520069.500
1190280.938  -447893.438
1220365.344  -396702.031
1208292.250  -314067.375
1231252.875  -238073.562
1230444.312  -145100.781
1236284.656  -106116.719
1184524.875  -64002.344
1209421.938  50872.031
1176201.969  72585.531
1178673.531  154354.688
1165245.094  249800.875
1137976.219  294427.875
1056301.375  325543.531
1048672.719  416027.688
1060190.656  460195.562
1001406.469  530061.719
972533.969  569463.812
905037.344  600739.312
864720.344  658407.375
831972.438  692930.625
783917.750  771713.875
752390.438  761943.062
662694.375  793803.344
611566.906  847207.250
572123.156  858059.156
546095.875  884604.375
478919.000  887634.000
406042.938  957034.156
373078.875  957785.594
300445.906  950400.219
258113.375  969644.562
223754.219  964974.000
143350.062  963156.375
104380.906  980116.438
45183.000  971567.031
-30553.125  952394.250
-82134.781  974874.188
-122719.625  964508.250
-137372.219  933222.844
-199127.656  895527.969
-280458.938  914263.062
-281865.438  914208.062
-361226.188  882944.219
-409641.656  825772.844
-428775.438  802027.938
-471889.438  793545.031
-542656.375  759728.406
-560383.844  757618.062
-606553.531  711229.781
-628377.281  656252.875
-657081.438  629333.000
-711315.969  589648.812
-727276.469  550601.812
-755594.125  519371.469
-799869.781  451724.500
-795226.000  401001.750
-790091.656  356735.562
-854147.562  319559.344
-836411.406  270088.781
-837286.375  228973.469
-867968.344  179958.125
-864362.219  135491.781
-861792.906  69961.125
-861217.656  64684.688
-884756.438  -19907.375
-892956.531  -64530.969
-851764.656  -81029.469
-856575.656  -168720.250
-841947.562  -164509.562
-806088.000  -237806.094
-841896.844  -236729.906
-791115.250  -296131.438
-770587.156  -344984.219
-747984.312  -409004.125
-702487.500  -441087.031
-702549.062  -469346.531
-632314.188  -513775.906
-636822.188  -531831.344
-620592.875  -585277.531
-556168.312  -582950.875
-528199.156  -604553.219
-503588.875  -655173.125
-447909.625  -694981.812
-430019.375  -697995.625
-356682.688  -725321.094
-340260.969  -730546.469
-296387.469  -749448.281
-266140.750  -783680.562
-238376.594  -761558.625
-181735.656  -790212.438
-165477.281  -787427.594
-79070.719  -773457.312
-53771.438  -808170.531
1371.844  -791807.250
72656.219  -799014.875
55701.344  -783194.906
139804.594  -764082.312
148875.094  -786407.031
231727.438  -760267.281
241677.344  -703215.094
277112.250  -772657.125
304034.250  -712928.406
350316.281  -689480.375
408115.625  -620647.219
391409.125  -617223.312
471797.125  -630155.219
464466.156  -619648.188
507356.375  -567213.250
554215.000  -528321.750
595993.875  -481344.750
639678.438  -437507.406
629430.656  -441778.781
659801.188  -377628.625
708014.938  -364059.688
681328.812  -322863.969
692994.656  -260759.375
724712.688  -210176.094
735798.938  -181626.281
731487.000  -173383.906
749982.438  -80822.000
718964.781  -89479.500
753029.312  -16037.938
712282.969  38321.281
738923.344  43328.094
731929.781  85820.375
714128.938  140970.094
678445.844  189045.500
710506.938  263289.688
695019.812  266595.750
647984.469  260717.781
634304.844  330019.625
620772.281  348689.000
591984.688  403797.281
571134.000  426220.938
579502.406  448614.906
508489.344  483156.469
499121.875  515301.688
442462.531  530652.188
424474.438  594307.906
387835.531  590386.438
374778.062  615945.281
328190.750  619881.688
294668.781  630061.625
243737.500  634050.031
215710.094  637313.406
182096.875  663076.562
148236.719  662964.812
140732.312  680331.844
41950.688  674561.188
33895.688  707894.594
6128.531  683613.438
-21225.531  690511.438
-77594.812  688723.844
-131683.594  689326.188
-152722.594  649686.969
-163762.344  660652.344
-209342.219  619263.375
-213547.906  615320.406
-311571.094  623057.281
-341817.156  565431.188
-340910.562  555612.906
-384857.844  520473.688
-390559.531  536219.406
-409334.781  488288.875
-470137.875  479077.062
-461018.812  432769.781
-510736.781  422732.219
-565457.469  397844.719
-556616.312  330254.375
-572428.406  311169.781
-582331.031  307808.812
-589929.344  248681.188
-604760.438  211881.094
-632418.312  165648.000
-617951.781  164205.500
-645274.219  106843.281
-626916.938  56442.656
-643605.625  63440.344
-617723.000  33.938
-627274.344  -40192.062
-633266.562  -66846.500
-606891.781  -117040.406
-620856.062  -101359.250
-596892.156  -148855.281
-578594.969  -193874.156
-602242.844  -217691.969
-587602.688  -257551.688
-542363.250  -277818.562
-496318.781  -341170.500
-513831.562  -346205.562
-481915.344  -393601.906
-459026.531  -390936.156
-432872.125  -432830.688
-407958.750  -454918.781
-400994.281  -488101.156
-375086.844  -489758.000
-328361.031  -512114.281
-311738.031  -500956.156
-279463.562  -526050.344
-243989.219  -556962.750
-207054.969  -558989.656
-170166.188  -562532.812
-176672.844  -576810.250
-132584.500  -598937.750
-84092.188  -575138.438
-48381.438  -595405.781
-11345.281  -584034.688
-3541.812  -606549.156
69132.406  -595451.375
98534.875  -592399.688
91277.906  -584221.125
135109.406  -575217.375
177645.125  -597243.531
183771.156  -545980.344
296970.906  -528950.531
270423.938  -530667.562
285452.281  -514361.094
304070.312  -488210.594
368574.594  -510824.188
402580.781  -426627.562
382733.969  -424811.781
429801.125  -385099.906
469534.219  -378021.562
441181.750  -374313.906
464553.219  -334908.281
504788.219  -306637.312
496170.344  -264974.594
509965.969  -220714.094
511165.500  -244971.781
531219.594  -204488.062
540152.000  -127219.750
553824.844  -118411.094
539871.750  -93075.000
605367.094  -64797.188
554048.000  -47254.656
530750.594  23365.031
564333.812  27444.375
553567.000  47998.375
578718.312  125605.906
545194.875  124116.906
548523.594  138171.781
526990.062  178138.781
517311.781  221066.188
530201.156  236983.531
494684.344  275688.562
449969.031  301821.906
435797.125  313779.469
458706.406  338729.906
407672.969  371645.438
362839.906  360482.375
360359.375  413704.125
325988.031  417349.719
336007.750  414374.469
320674.188  458995.312
247048.625  485955.812
245890.406  484537.094
212733.938  525392.531
202223.812  530682.969
128698.812  504343.469
121788.906  525933.906
71857.656  573052.844
93843.656  545788.188
67911.500  554803.500
9773.000  540874.281
-39863.438  550203.406
-79932.531  533598.188
-87075.125  567766.438
-98667.000  528498.656
-154052.656  524144.875
-196670.719  514244.531
-204356.188  489398.094
-237992.500  492821.375
-273275.344  509789.062
-283547.594  463445.031
-291759.531  417998.594
-313196.500  411400.281
-370877.844  369575.781
-356274.219  371987.031
-387017.000  367485.031
-380830.344  317252.750
-403793.406  301800.312
-438232.500  277536.781
-431952.219  277648.250
-457327.781  224093.156
-462011.031  193398.062
-478110.156  171694.281
-504657.750  188382.656
-535885.594  161284.094
-526004.906  89237.500
-508678.688  88614.531
-537478.062  7060.375
-527188.844  16436.156
-522582.969  -16289.531
-512642.062  -39468.156
-502476.906  -73507.219
-494271.344  -91815.969
-499728.406  -123563.844
-508757.500  -154356.031
-462732.844  -188748.281
-439431.938  -184346.938
-448036.625  -213208.625
-450335.875  -233059.438
-406280.219  -262419.531
-400136.031  -278474.281
-377587.281  -291183.812
-362633.281  -317645.406
-342663.781  -352921.938
-320947.406  -349034.969
-291906.656  -338681.094
-268421.094  -393401.344
-256583.125  -386985.719
-257989.438  -398188.875
-209673.469  -420742.250
-209349.000  -435847.781
-142756.500  -440123.375
-136166.438  -461918.688
-105298.312  -415026.844
-93628.625  -453815.625
-100270.469  -453829.125
-24995.500  -448294.594
-48001.188  -466663.219
-4541.250  -455041.969
21454.750  -455495.844
40822.500  -404088.656
71902.656  -457233.562
105947.969  -412573.000
121485.562  -426817.906
102232.562  -413760.281
156395.125  -402825.750
180068.969  -402296.125
207950.062  -379137.031
220894.031  -358757.062
217048.562  -348360.312
201824.562  -347275.156
265532.312  -332179.438
284556.438  -290008.312
315599.562  -290051.812
311945.688  -245692.438
297034.719  -250806.094
343760.531  -239747.562
345275.594  -196525.500
329758.406  -197432.156
351931.344  -170449.344
359781.562  -129622.594
359545.281  -143937.188
381175.094  -90521.719
385060.375  -76772.781
341741.500  -42570.688
386293.562  -57965.031
373992.719  -17689.531
347216.188  3809.781
369447.844  12909.469
361090.156  50134.875
