        $SEQPAR
        DWELLTIME= 0.0001220000000000
        HZPPPM= 0.0000000000000000, 0.0002025255087268
        SEQ= ( 64 )<ISIS_31P>
        $END
        $NMID
        ID= '( 60 )<NADH_20mM>'
        FMTDAT= '%6.3f'
        TRAMP= 0.1100000000000000
        $END
46902.125  -97958.000
-36674.250  -305761.500
-92885.250  -219834.000
-144316.250  -240302.250
-240720.250  -101470.875
-213343.875  40739.125
-265702.000  150083.875
-116488.625  260506.000
19377.625  253088.500
56478.250  216992.375
219650.250  135502.250
181104.375  76860.875
241951.250  -103128.625
203292.375  -164865.000
76167.000  -231437.250
-53831.000  -231529.750
-67227.625  -184804.500
-213658.250  -124519.375
-220300.375  -31258.375
-235792.250  16027.000
-154985.750  171225.000
-102870.125  254180.250
-6581.750  201175.250
118894.500  115604.875
222791.875  102585.125
210630.625  72287.375
203833.000  -122178.375
156800.000  -180793.125
29450.625  -213752.375
-26008.250  -216863.375
-153580.875  -229642.125
-160937.125  -56952.750
-204590.000  21044.625
-153560.000  88614.000
-115083.625  183822.875
8891.625  88545.250
50235.750  198508.000
106600.375  133733.250
157736.500  86069.250
216516.750  -27843.500
187912.750  -66754.375
65588.625  -158256.875
23270.500  -201089.875
-29667.625  -181734.875
-217625.625  -98133.375
-159013.250  -50360.500
-176782.125  61893.375
-92503.375  161061.125
-42949.000  166883.125
37026.500  175953.375
59378.125  158954.875
148372.875  94900.250
178447.000  106974.625
152235.000  -64180.125
110102.500  -148163.500
73307.500  -89159.250
2805.125  -173105.625
-83413.625  -141040.625
-113592.750  -56347.000
-210256.375  -24289.000
-195855.625  -17675.500
-83306.625  154241.000
-2712.875  199623.750
30672.250  113079.875
41267.750  126883.375
110688.250  94700.375
68443.000  4979.000
161557.750  -59422.250
115654.375  -126868.875
81368.625  -132894.375
11084.750  -223379.000
-101163.125  -55537.500
-185681.875  -98088.125
-149007.500  -7255.125
-150949.375  40080.250
-124161.000  80744.625
-8295.250  164669.875
85161.500  124786.250
100506.500  63305.625
122369.250  59186.250
68721.625  26932.500
108285.875  -152746.250
105480.875  -183455.125
62130.125  -176249.500
-46686.875  -162599.875
-41351.875  -41751.250
-100558.000  -1725.750
-83966.250  60304.000
-118301.500  53179.000
1538.750  108815.125
16258.125  127025.750
102982.625  141383.625
127558.750  83058.500
145706.625  57610.625
164185.875  -46142.000
86417.125  -97102.375
20896.750  -124777.625
40092.125  -204546.250
-96888.875  -129178.375
-88412.625  -96256.500
-100402.500  -1818.625
-146493.000  43151.000
-32965.125  136024.250
-130400.875  144821.375
93407.500  163435.875
71896.000  102884.500
120216.000  75522.500
142799.375  12914.750
126446.500  -34469.250
108178.625  -96970.000
62590.750  -120832.625
-30439.125  -138898.875
-143005.875  -159785.000
-109555.375  -72968.125
-75636.500  42207.375
-179392.875  58514.625
-37201.625  137727.750
-27141.500  155984.625
71404.125  87658.250
51800.625  85673.750
197665.500  58852.125
116398.875  -44052.375
135397.750  -120023.500
42600.375  -127689.000
7614.875  -122399.875
14742.875  -106302.125
-107202.250  -69639.625
-146632.625  -11127.875
-156851.875  44245.875
-69517.875  41023.250
-48007.000  104301.000
-80468.250  132536.375
107267.500  55950.375
111484.250  56577.875
134727.500  21334.625
101190.000  -29761.375
135907.375  -82569.250
55447.000  -105271.250
-59811.750  -133819.000
-79383.625  -171291.125
-45671.000  -71288.875
-145787.750  -42993.250
-106442.000  98182.125
-124247.250  76249.250
-12949.375  59050.750
11415.250  143585.875
100498.375  96560.500
109078.875  56632.750
93959.250  -30527.500
159906.125  -111359.875
57814.000  -136420.375
36476.625  -107109.625
-1134.625  -111708.000
-40419.000  -108642.125
-139516.875  -39323.750
-131211.625  3298.000
-106937.375  60039.125
-102992.750  75867.875
-13098.250  137965.875
34075.125  124801.375
89472.500  36127.000
70370.375  19038.375
117934.500  -1352.500
69835.250  -56736.375
96151.625  -96656.625
-7155.625  -123219.000
-25066.125  -85613.500
-101132.375  -67838.125
-27754.125  -3296.000
-131372.375  4233.625
-82968.500  60147.375
-112288.000  152149.125
19650.500  90434.125
50641.625  51327.750
143694.000  71768.000
142737.500  4528.375
129039.875  -30224.375
95337.375  36376.000
134235.750  -156612.875
-25471.125  -110264.750
-56668.250  -109188.750
-88444.125  -78220.250
-138920.250  -26852.375
-124919.750  497.500
-54968.625  77438.125
-120126.250  125419.125
-48945.000  125327.125
82748.250  112593.000
78228.875  45818.375
113722.125  -41169.250
152398.000  -80544.000
79533.625  -47210.875
44697.500  -121983.375
-12592.125  -139601.375
-27199.250  -101299.250
-77576.250  -30130.000
-121740.250  20225.000
-117539.500  48474.125
-83098.625  63345.250
1666.625  61833.125
-30827.125  85507.375
105111.500  104751.375
139432.250  45019.125
84703.625  -59407.125
88639.625  -81218.125
101991.750  -62863.375
22065.000  -152648.250
-25341.250  -136152.125
-57630.875  -52728.250
-106201.875  -66043.625
-139736.750  -1264.375
-108628.875  48198.625
-87861.250  90379.875
1362.500  113805.500
32661.625  100978.250
67417.375  52752.625
123228.750  39666.750
48070.250  -1499.625
97092.000  -57823.000
40116.625  -84200.875
-5117.375  -88592.375
-11335.375  -102432.125
-149226.875  -75119.125
-57867.500  -40661.625
-141577.125  40416.250
-98374.500  55908.625
-102090.875  73547.625
46950.500  150510.000
90412.875  149645.125
84521.750  17286.500
126190.250  90583.125
75386.250  -22811.625
132793.375  -84880.625
82818.500  -89098.125
-33316.750  -158679.500
-43507.375  -90097.000
-111344.250  -38963.125
-109065.125  -33518.500
-137823.500  43761.625
-41458.125  101782.875
-73283.500  140089.625
64610.250  117778.000
22153.500  99943.750
109369.875  46316.250
159706.625  -234.000
60704.750  -33337.625
121224.000  -88520.625
-1653.875  -78587.500
-7450.125  -59389.250
-61011.875  -105318.875
-47632.125  20425.125
627.500  -5701.625
-74565.250  54138.000
-51293.500  56655.875
-19801.500  112051.125
61090.500  72569.625
84253.750  77072.000
111398.250  76600.000
64512.875  6851.625
90865.875  18125.750
30841.125  -93796.500
59911.875  -126348.375
-99978.000  -84724.750
-67592.000  -57092.625
-110724.750  -5245.000
-126690.375  33131.125
-58331.250  45663.625
-41157.750  83698.750
-26657.125  112893.500
67419.125  103820.000
58706.375  69061.500
106689.750  27707.625
83338.125  -34925.625
51368.875  -83277.250
74387.625  -51347.625
41766.250  -102772.875
-92495.250  -46119.625
-68897.625  -14541.250
-99613.125  -12008.375
-53073.750  17276.625
-77789.000  59455.875
22708.375  78959.625
37463.375  52827.125
-176.500  143512.875
133550.250  29219.625
52630.375  -18764.250
101347.750  -70430.375
155384.500  -40719.125
42617.000  -117160.750
-16933.250  -90853.625
-52026.875  -19917.875
-42396.500  -45387.625
-81001.750  31510.750
-44763.750  42564.500
-120042.875  101791.875
-87812.500  121662.750
58248.250  102447.875
16090.625  43565.375
137427.625  44140.125
109796.250  14439.250
137502.625  -47844.875
95116.375  -196331.250
16190.125  -54912.250
-19130.250  -85069.125
-67311.250  -93503.875
-137280.625  -11609.000
-78111.875  13331.750
-59822.625  52344.375
-15817.250  77351.500
-26465.625  151795.250
9101.125  94097.000
79512.250  3459.250
57939.125  39733.875
104872.750  -19023.625
126593.375  -128758.750
88206.250  -92300.000
-14395.750  -94441.000
-31984.000  -35948.500
-27526.000  -36171.000
-163968.000  -8578.625
-112227.000  20111.250
-64724.375  34096.500
-44052.375  18207.250
12217.250  83026.625
59901.250  109988.000
70578.750  41285.000
138938.375  18130.250
96156.625  -77491.000
32956.875  -32190.625
68626.250  -87836.875
-74748.250  -86934.250
-38046.000  -59275.500
-95726.750  -101049.125
-98086.750  67944.500
-79601.500  17800.000
-61940.625  44029.125
-49124.875  113333.250
24279.625  117450.250
-7951.500  93717.250
35378.000  26804.125
80232.875  -47822.000
31214.875  -49266.750
89744.625  -101280.000
45754.750  -118016.250
-22595.875  -25786.250
-55618.875  -88811.125
-43439.125  -26863.750
-20063.500  -33769.625
-137451.750  49643.625
-25886.250  94439.750
-22140.375  141231.250
-3617.875  122424.000
90447.625  54556.500
73136.125  -40219.375
98522.750  -91065.125
72011.750  -68993.375
-7277.125  -145263.375
9221.000  -91099.875
-16941.625  -78264.250
-103119.625  -9010.875
-108465.250  -42825.750
-85248.750  -9944.875
-73564.625  67966.250
10598.875  77189.125
13923.250  53915.250
57324.000  95290.875
81429.000  46079.750
41804.250  3741.750
136291.125  -70425.875
-1072.250  -53995.875
47076.375  -69497.125
-28664.625  -59250.375
-6586.125  -62347.000
-101342.625  8247.125
-117213.250  -32415.500
-27729.875  27236.750
-50579.125  109640.250
-12574.000  101469.125
13838.500  76556.125
78365.375  12425.750
19812.625  -4064.875
101612.000  2717.125
76055.125  -32305.000
86643.500  -101989.875
46071.625  -68300.375
-61879.375  -115049.625
15250.375  -87438.625
-47880.375  -21338.000
-101995.750  -67876.125
-41433.500  54555.875
-26368.125  36260.125
8319.625  58849.750
-4048.750  22601.000
-21985.750  25439.875
60561.375  18083.625
11327.500  30947.875
43841.875  -115191.000
58490.875  -60535.875
9732.875  43042.875
-33580.125  -98622.625
-85061.125  -32697.375
-90299.375  30832.750
-93010.625  -157.125
64276.875  50369.625
-2349.000  68181.375
32192.750  4835.625
-14846.250  62930.375
20138.375  82219.375
49640.250  44459.125
44441.875  -86016.375
71034.250  6149.875
67752.500  -52301.000
-41509.625  -43313.500
-72030.000  -27876.500
-71649.500  52740.125
-43289.875  -8631.500
-20462.000  15353.625
-35644.125  10643.875
16405.625  85067.875
29059.000  80867.375
39283.250  13425.875
16281.625  -18210.875
5329.625  2878.875
71735.875  -90937.000
55034.750  -61989.625
1125.625  -17605.875
7387.500  -30089.000
-85114.875  -112518.750
-42825.250  -71635.750
-85067.750  23180.750
-49041.875  17103.125
-6012.750  64114.000
