        $SEQPAR
        DWELLTIME= 0.0001220000000000
        HZPPPM= 0.0000000000000000, 0.0002025255087268
        SEQ= ( 64 )<ISIS_31P>
        $END
        $NMID
        ID= '( 60 )<NADH_20mM>'
        FMTDAT= '%6.3f'
        TRAMP= 0.1100000000000000
        $END
70261.375  -201195.000
95769.625  -489837.750
-234882.250  -316246.125
-281287.500  -304380.375
-484686.500  -45089.375
-466812.750  84186.250
-293102.375  314015.125
-138180.875  453192.750
17932.375  510746.750
240948.625  378086.375
415715.750  209109.625
424797.250  31171.750
392779.875  -115740.250
275867.125  -321126.500
19859.000  -404933.875
-107096.750  -427087.000
-263287.875  -316993.125
-368423.875  -204417.000
-422428.750  13652.125
-359041.875  137136.750
-229184.625  251319.000
-19616.125  422429.250
80267.375  406792.875
253695.250  340821.750
326689.625  173122.125
398674.250  -29273.000
353382.375  -215150.000
202533.125  -316159.750
133921.125  -376506.375
-121160.500  -328303.125
-290508.625  -315644.125
-336535.750  -78952.125
-340164.125  40480.250
-343167.250  167331.875
-172789.125  321194.250
-61700.875  320931.625
119479.250  364212.875
267640.750  204215.125
331494.000  88871.875
349804.250  -19978.500
316912.375  -215909.125
123749.625  -336482.000
7668.750  -358166.250
-160523.500  -270388.250
-256751.250  -256171.500
-320619.750  -84832.625
-340360.375  83352.500
-222650.875  176654.125
-137124.375  290245.125
-24136.000  309964.375
110412.625  206379.500
178599.750  178365.625
285558.875  75672.250
297453.375  -91124.125
210295.875  -154459.625
138372.375  -288740.500
13597.875  -328552.000
-172018.250  -240291.375
-202166.000  -188362.375
-289432.500  -58226.625
-312437.375  73179.250
-219395.125  267947.875
-180714.750  206185.250
40564.625  302274.750
203195.750  222497.500
225208.750  162529.375
268699.875  78335.500
273314.250  -108789.500
175371.750  -193648.000
108132.000  -279097.875
-60686.375  -324031.750
-119204.250  -264218.375
-245515.250  -220827.875
-247780.875  -80769.500
-245827.000  69034.250
-158376.750  184900.500
-79623.250  240961.125
73326.750  318637.750
154562.250  167441.875
252607.125  122687.625
271844.625  3122.500
310578.125  -174857.500
141829.375  -239951.750
46771.125  -329061.125
-74909.125  -287278.500
-163391.750  -229911.500
-242559.000  -179974.375
-313860.000  43533.125
-215371.000  121939.750
-158970.000  221780.875
-45346.125  199778.125
37757.875  276726.625
201225.000  135903.375
211049.625  101958.250
300555.875  -4658.125
277501.000  -159628.625
135355.500  -267290.000
93555.500  -270897.125
-69943.625  -234883.500
-163722.750  -217238.375
-244571.250  -92858.375
-263944.000  50245.250
-195876.500  79267.750
-142664.750  163841.875
-13248.250  204296.000
137706.750  220331.250
142678.250  179682.000
209584.375  50777.500
253341.250  -92714.500
196431.625  -125716.000
139997.750  -245186.875
-57358.625  -234687.125
-92184.375  -207810.750
-160092.750  -151877.250
-226215.250  -55941.625
-216750.750  62868.375
-159877.500  131335.125
-123119.125  211509.125
-11343.750  300107.500
116609.500  235357.125
168210.000  121508.625
264037.750  60317.125
270011.625  -104132.125
175162.125  -122818.875
53760.375  -175605.125
-11765.375  -251880.125
-161079.000  -220939.125
-158147.875  -130298.250
-271445.625  -21039.375
-193436.375  110186.750
-157759.000  125956.000
-54666.000  203772.750
43296.500  165404.125
178607.875  146931.250
144154.500  152066.625
269088.125  -27824.375
228435.875  -112172.875
190063.000  -146546.625
35524.875  -187575.375
-28955.250  -302219.250
-91401.375  -189616.375
-185945.000  -119331.750
-294712.500  38062.500
-218912.875  123357.625
-86753.125  237325.000
-83933.250  184986.125
65615.625  167690.375
167246.250  181804.875
179872.625  56808.125
148564.125  -19722.125
187610.000  -108678.250
101461.000  -182396.625
22565.750  -172246.875
-66781.250  -224738.875
-142879.750  -69839.750
-135837.625  -28564.500
-213332.375  37574.375
-172512.875  118113.125
-118771.500  143011.375
-56354.500  208643.375
38323.750  198675.375
132064.875  153771.000
223147.750  44714.750
206238.125  5271.875
192487.625  -153066.250
90730.875  -167366.125
3656.125  -183988.000
-101127.625  -218565.250
-143117.125  -84855.000
-188697.750  -2462.000
-226071.875  45346.125
-147637.375  158575.000
-108060.750  146385.375
-14389.125  211608.750
125377.500  178892.875
141655.000  103822.000
203926.500  34128.500
150396.625  -35054.500
132645.750  -83939.875
120563.000  -302577.125
-37101.625  -206095.375
-47495.750  -189179.375
-176425.875  -155904.750
-219064.500  -27357.625
-173535.500  93153.750
-139947.500  109405.125
-81469.625  216133.500
30807.250  251058.375
139767.875  165466.500
189439.750  128674.625
252820.375  4379.625
172408.750  -23165.750
146273.125  -133288.875
74685.375  -156784.500
3448.875  -229291.625
-59456.625  -176293.875
-122437.375  -125686.250
-219604.750  -5212.250
-163926.125  98483.750
-148484.500  140424.375
-40006.875  176560.000
41176.500  135677.250
91373.250  139251.000
164860.750  115683.250
207502.375  -2905.250
209316.625  -44081.750
122395.125  -190314.875
21165.125  -174537.000
-31637.000  -190161.750
-132207.125  -167846.250
-224181.500  -88589.625
-173671.000  3079.875
-171427.750  123191.625
-180066.875  224722.125
-65180.125  200103.375
80950.625  227300.375
145531.000  121623.875
239911.625  46932.500
202573.000  -5045.250
168813.750  -104276.500
76585.375  -159796.250
48082.625  -173123.250
-70276.625  -160312.500
-86765.750  -197278.750
-165447.500  -93128.750
-184239.750  27951.750
-123081.750  129990.750
-116386.625  190587.625
-59828.250  158340.500
69949.375  168697.875
178190.000  120953.500
210454.875  23237.500
236918.625  -3564.375
139040.375  -162199.375
64046.500  -186111.000
-45143.375  -217721.000
-77081.125  -160034.125
-193556.250  -108147.375
-184585.000  -48482.500
-211311.250  7162.000
-206599.250  101031.750
-12971.625  123320.625
-44197.625  160978.000
77670.500  160131.875
125624.625  97772.875
153177.125  38302.000
171457.750  -38279.875
109431.875  -113550.125
14822.250  -179074.625
9747.500  -204197.625
-67426.375  -194743.250
-104757.125  -26374.125
-138519.000  -42267.625
-209460.500  90267.125
-157172.250  64171.875
-41420.125  226439.750
18711.000  177246.000
95313.750  183259.625
120754.125  109019.375
178049.500  -7869.625
185610.875  -112983.125
93729.000  -137058.625
-9975.500  -235205.250
-11471.750  -223692.125
-125169.000  -144968.500
-167463.875  -111165.750
-215663.750  15256.500
-154314.750  79951.625
-112627.250  138463.500
-58144.625  147114.625
63326.250  237616.875
130232.125  132683.375
169713.625  58858.000
263667.750  33225.750
176904.625  -102245.625
79205.875  -181050.000
29151.000  -244636.625
-16866.625  -168695.500
-146311.750  -116921.875
-160038.125  -37848.250
-145205.125  25798.125
-129925.125  49717.500
-81080.500  109693.750
21238.875  208984.875
-18673.625  132702.000
95403.750  98494.500
118399.500  64867.375
168803.250  8632.125
162079.750  -96140.375
58785.750  -169100.625
24193.000  -166081.750
-113452.125  -156648.250
-148742.125  -172559.250
-228337.875  -17412.000
-215919.375  64540.000
-172518.750  123618.125
-67954.500  130727.500
-17400.000  158579.625
110318.750  183944.625
143750.000  23411.625
237753.375  70051.625
131932.625  -103856.125
118644.250  -156077.000
53295.250  -142980.625
13412.375  -131287.750
-93641.500  -182251.250
-155103.250  -84664.250
-95964.375  -36685.875
-182204.000  72429.500
-135815.625  58345.125
-44751.250  224396.625
15013.125  188415.000
100723.375  179086.750
170003.500  137058.500
134831.875  1968.500
170797.000  20993.125
107693.375  -83621.375
18324.375  -166843.625
-25581.500  -107872.625
-100707.000  -144808.375
-158664.625  -100967.875
-168558.125  -15218.250
-132004.750  87761.875
-110975.625  197936.125
-91842.125  183726.000
58534.250  151022.250
76975.125  172715.750
168987.250  36027.125
200585.375  -11203.375
117020.875  -72970.500
135039.750  -126395.375
42028.250  -125820.000
-27104.625  -173913.625
-96905.000  -120978.375
-177346.000  -45941.375
-173073.625  29891.125
-127158.875  60920.250
-96208.125  214919.000
-57957.500  186808.000
62133.500  120166.000
90284.625  118253.250
139543.125  113891.750
173698.375  7743.500
177420.250  -50610.500
123774.250  -163845.375
38911.000  -156623.250
-45517.875  -167500.125
-77950.375  -114923.500
-161637.250  -14407.125
-186468.375  -22465.125
-120040.750  109426.500
-76794.875  122149.875
-29279.875  108551.125
78742.125  138360.625
144202.750  99433.125
187735.500  2311.750
149924.500  -13660.125
141122.750  -88033.000
36375.250  -123447.625
24893.750  -220006.375
-93153.625  -128481.875
-121547.875  -56125.500
-165969.625  40767.375
-148674.000  75462.750
-136305.375  117257.875
-46028.875  136750.875
41096.125  132202.625
25883.500  91834.500
101571.000  68092.625
150095.750  -8133.250
121217.125  -85603.250
151049.250  -48558.875
11818.875  -145120.750
-37880.250  -156203.625
-101309.375  -89723.000
-108692.375  -111755.125
-163265.125  5094.000
-111294.250  57810.625
-105596.500  96724.625
-76082.125  121401.875
93187.875  165243.375
60196.750  100417.375
128514.625  13874.250
153038.125  -17149.625
113670.750  -105796.125
70086.125  -115440.500
38616.000  -129999.000
-39597.000  -157547.000
-65845.875  -86881.625
-148498.500  8786.250
-132884.125  -22500.000
-127459.250  86910.875
-24590.750  92877.000
37462.625  71785.750
27602.625  139320.375
100177.250  71044.250
104089.375  44010.500
96882.000  -35256.375
94401.500  -61865.250
7705.500  -119440.375
28859.125  -64432.500
-7298.000  -122872.000
-60439.125  -33752.750
-90194.500  -23277.375
-118492.375  -15999.375
-83906.500  53789.500
-130447.250  55331.125
12566.875  146989.000
57336.375  76244.500
73232.500  121832.500
119084.125  18226.250
155313.625  -27833.250
80517.500  -47598.250
2558.375  -130714.125
31241.000  -72496.000
-60692.750  -96741.375
-88407.250  -26189.875
-90761.250  11710.750
-103110.250  42480.500
