        $SEQPAR
        DWELLTIME= 0.0001220000000000
        HZPPPM= 0.0000000000000000, 0.0002025255087268
        SEQ= ( 64 )<ISIS_31P>
        $END
        $NMID
        ID= '( 60 )<NADH_20mM>'
        FMTDAT= '%6.3f'
        TRAMP= 0.1100000000000000
        $END
47856.875  -112424.375
37591.875  -393480.000
-210346.625  -316310.625
-213464.000  -228824.500
-353798.500  -98010.250
-296073.875  108794.375
-242153.250  252707.750
-146142.250  325004.625
13332.000  351968.375
164448.125  319479.375
243361.375  242668.000
329497.625  112951.750
349962.375  -48094.000
315527.625  -132158.625
154643.750  -279618.125
-16464.750  -360292.875
-124349.375  -286024.375
-158041.875  -189275.750
-242668.500  -99312.375
-321462.375  53180.875
-237683.000  193689.750
-170285.375  232350.625
-73822.375  335296.875
80894.000  326133.000
197072.375  231899.500
343923.875  65781.125
338454.750  10088.125
262455.500  -161557.750
231553.000  -176967.750
67558.750  -264131.000
-38302.375  -327751.125
-123957.250  -236608.375
-221160.875  -126887.000
-292240.125  -48348.000
-247345.375  147236.500
-184181.000  154972.125
-22243.500  211606.625
58725.500  228969.625
155383.625  174155.625
217045.125  128298.750
298312.625  -6701.250
241039.125  -90407.375
171361.000  -156805.750
49659.500  -239510.125
-41676.625  -256197.125
-136502.625  -253300.750
-258905.250  -139573.500
-287434.875  -27795.125
-244096.000  48574.125
-234092.750  217674.875
-48814.625  286338.250
-5140.750  226735.625
124742.125  236216.625
166116.125  181326.250
219765.625  30466.250
209105.250  -93255.000
183705.625  -123167.250
70507.500  -134275.000
-3483.750  -225532.750
-37885.250  -275837.000
-140159.750  -103496.875
-261255.250  -59460.000
-251140.750  28479.750
-160973.875  92791.875
-93682.625  151000.500
-16204.375  256460.875
65466.125  144978.875
168362.875  100452.500
229314.875  64455.125
225596.375  -43122.500
179081.250  -82324.625
177908.250  -198032.375
-18262.500  -238789.125
-64471.250  -201886.000
-164549.000  -125795.250
-110647.500  -117716.000
-203254.625  5709.750
-126625.375  115153.250
-133634.500  194186.500
-78242.625  187641.000
-2075.000  169901.000
81402.000  181431.875
244172.625  111889.875
180328.375  1606.250
140002.500  -97275.125
179665.875  -128216.500
79123.750  -176808.750
-70570.125  -144001.875
-139677.500  -138430.125
-158088.250  -100995.125
-192109.000  26089.625
-157050.000  132003.250
-124321.250  209195.250
-43960.625  183592.625
21218.875  174098.375
108035.625  168726.250
151880.125  76012.375
198624.500  67092.250
187745.000  -54774.250
167215.250  -184699.750
67906.000  -221979.250
10086.125  -264824.625
-42215.750  -144825.625
-120433.875  -104866.375
-220990.625  -66328.875
-176682.500  89451.500
-110485.875  124785.000
-123633.250  198671.500
37836.500  193613.250
63906.000  148479.125
176633.125  67411.125
148679.125  22739.875
155422.500  -77780.375
70811.250  -139964.750
71120.375  -136170.875
28329.625  -194461.375
-56516.250  -161493.250
-181200.625  -112964.875
-171622.375  -114487.000
-142123.375  3006.125
-99446.875  116563.000
-108694.125  117882.500
-30604.875  137493.500
81928.125  190231.750
182448.750  129750.250
131432.000  50723.500
228409.875  -39795.500
103754.125  -86865.500
126706.250  -173610.250
-10061.875  -198142.625
-68005.625  -243349.875
-142866.875  -162708.625
-193713.625  -50818.250
-215423.750  26421.000
-99959.250  92114.125
-74647.875  168434.625
-1165.500  206448.625
-662.125  192341.500
68546.000  157985.875
53865.500  31163.250
170689.125  41091.000
171249.125  -96352.625
68521.750  -147726.000
39903.875  -176574.125
-33383.000  -172323.000
-164129.250  -80837.750
-114347.000  -76456.625
-203909.750  -42673.500
-219847.875  43692.875
-72441.375  109007.250
-73348.500  158361.375
47061.375  169087.000
79707.500  166055.375
173718.750  32422.625
140238.250  13456.500
192800.500  -64580.750
128414.500  -85125.125
32187.250  -198857.375
-2254.125  -144162.625
-111041.125  -95038.750
-155875.875  -96405.000
-152586.000  -12442.500
-203270.625  30080.125
-184107.000  106518.375
-80478.000  118652.250
17627.250  197028.125
52477.625  226943.875
84738.500  140725.125
156581.125  90465.125
165436.750  -71326.875
105579.000  -113496.750
110340.250  -139615.000
-2774.250  -143033.000
14690.500  -108934.750
-121174.625  -108312.875
-170529.375  -90425.000
-128860.375  -773.750
-151847.500  109173.625
-28078.000  146750.500
19937.375  118644.125
45975.375  212876.500
155718.750  106023.375
106072.125  126120.000
204154.125  -23467.875
117680.750  -72786.125
37827.125  -231011.250
32595.625  -183804.625
-31092.750  -162543.125
-71486.750  -155198.000
-117450.875  -82034.375
-166542.500  18268.000
-166921.125  66558.875
-41660.375  131232.125
-7494.875  209912.875
72085.250  165250.250
101803.500  152556.000
203907.000  50025.250
143426.750  78919.500
158577.375  -20866.750
91799.875  -151795.250
31566.500  -182364.250
-30372.500  -193152.375
-30142.500  -178212.625
-146672.250  -117583.375
-185545.375  -50954.500
-163163.375  48892.500
-64498.375  129898.500
-94804.000  201563.000
15630.750  84212.500
67274.250  134646.125
113723.125  90358.875
160535.375  14295.750
157888.625  -47062.875
134713.250  -136470.625
14127.375  -141185.250
20775.000  -169808.500
-134246.250  -112368.375
-171092.000  -105800.000
-165431.875  -115746.750
-122877.250  8186.000
-139136.250  92074.000
-88545.750  159427.250
1745.000  203800.000
86335.750  106488.625
134546.125  58772.500
171415.875  57396.750
144584.875  -52080.000
128436.250  -25190.250
74341.125  -131733.250
36965.125  -181470.000
-27270.750  -139248.250
-101341.250  -177402.625
-35488.375  12881.375
-144569.750  78425.875
-131457.250  112174.750
-67150.500  131290.125
-30987.625  167092.000
40529.625  189322.625
94343.375  156547.125
161262.625  6667.250
109459.875  -49913.250
145899.625  -64753.250
121575.000  -84469.875
14581.000  -52760.625
-37769.625  -116583.125
-117040.500  -97015.625
-131750.875  -61045.000
-184864.375  62070.750
-133638.875  56596.125
-116763.500  69029.000
-21483.750  127282.125
2872.875  150488.125
85439.750  132720.625
156186.875  69766.125
187246.750  63495.750
157260.250  -56512.625
96852.375  -84461.750
6383.625  -153579.875
-27084.750  -159230.125
-61702.875  -134665.500
-189104.375  -92412.625
-157411.250  -8106.375
-107195.750  11577.625
-99489.500  137235.750
-77919.750  107547.750
-20901.125  79852.375
85141.000  137938.625
40771.000  90414.125
173279.375  43451.625
138794.125  -12522.750
125264.375  -158738.000
57019.875  -136816.125
5130.625  -138238.875
-92873.125  -160447.875
-67775.625  -141747.000
-205459.000  -67756.750
-153843.000  40108.125
-88901.750  66482.500
-99580.125  181976.250
-40006.500  131270.500
66974.500  152972.625
46358.625  114732.625
147221.500  57170.625
172623.375  -30510.125
108482.625  -76329.000
121527.625  -82467.125
42001.875  -155682.375
-81106.125  -177466.750
-120402.375  -61445.125
-63576.875  -97537.500
-162474.000  43203.875
-89308.875  42389.750
-70596.125  110420.000
-14335.500  139733.125
100454.125  147817.750
33974.125  127506.375
89030.875  34915.125
115274.750  -17232.500
160976.750  -80831.875
150565.250  -31351.000
61524.875  -115484.625
-27436.750  -144315.500
-64813.625  -112513.750
-112916.625  -50193.875
-182915.875  -62103.750
-112995.750  55173.875
-67700.125  94598.375
-31285.375  127931.125
14853.250  109379.000
72932.250  113126.000
124668.625  62187.625
148421.000  -14910.500
97010.375  -66168.000
90906.875  -112976.750
74189.625  -108011.875
734.125  -135446.500
-68779.625  -152088.125
-100340.750  -89203.375
-188041.250  -44744.250
-119215.750  60250.250
-54862.500  64239.750
27440.500  111153.750
77588.875  160084.625
96471.000  127353.625
107042.000  49782.500
116022.750  15136.250
64385.000  -69624.000
114924.500  -62019.750
61298.000  -158571.375
29947.875  -178013.750
-134064.125  -137322.250
-68567.000  -49789.375
-82179.250  -49902.375
-108070.375  5768.375
-80728.500  94127.000
-115419.750  169214.500
-23544.750  193250.500
48397.875  88605.625
98679.125  94867.875
103430.625  54350.375
123868.500  1389.125
85753.250  -67679.375
55606.375  -103133.250
64034.125  -103734.750
-5827.500  -115542.375
-103417.875  -88278.375
-160595.500  -82326.500
-107127.250  1354.500
-126372.625  28757.000
-73353.500  99510.250
-43842.125  209196.375
-12257.000  133123.000
91951.625  137215.250
109639.375  93631.000
155000.500  -15011.250
41061.125  -61025.500
43678.125  -150403.125
35580.125  -144064.000
2530.750  -197254.875
-94283.125  -135455.750
-88320.500  -46322.000
-118562.750  -22272.375
-116260.750  66827.250
-71953.000  92938.750
-69643.625  114200.125
56840.000  87988.500
45963.750  106814.375
149173.750  23304.875
108589.250  50930.250
99891.000  -144911.500
112615.875  -137927.500
58384.250  -86977.750
-7538.625  -126910.125
-38781.250  -95382.625
-156360.125  -10690.250
-79834.750  -47289.875
-46415.625  28290.500
-93501.125  102966.750
-70238.125  165127.875
28783.750  165633.875
44277.375  102325.125
137031.500  56454.125
168761.375  65446.375
88689.000  -62100.125
81075.125  -65394.000
77960.250  -31598.250
3586.625  -131800.000
-57609.625  -158946.000
-57131.000  -33748.875
-101452.875  -72702.375
-114280.000  -23834.250
-59198.500  51085.875
-72481.750  68813.875
76988.750  171587.125
81960.625  81629.500
49578.625  78968.250
33843.500  40689.000
125961.625  -20009.000
71324.000  -111597.125
5085.750  -108630.375
8316.000  -89401.000
-19301.625  -93262.375
-75606.625  -86689.375
-90196.500  -2662.500
-53548.625  100901.125
-135336.250  77703.500
-95376.750  138252.875
26806.875  97808.625
58269.000  52467.500
28456.375  58700.375
8911.125  93083.250
82305.625  15109.375
74462.250  -758.625
17738.250  -113961.750
50896.000  -86757.500
-87434.000  -132311.875
-36982.750  -7769.625
-113367.000  -137740.750
-85664.125  8293.750
-65720.750  29873.750
28.500  70677.375
-30645.500  49232.250
-56759.875  85036.500
22199.250  111231.250
